3560	1370	345124503666889
3589	1368	345124504345540
3626	1364	345124505237367
3679	1354	345124506072828
3721	1343	345124506912110
3737	1332	345124507743280
3723	1315	345124508543330
3694	1301	345124509181443
3662	1288	345124510102899
3647	1272	345124511064164
3654	1261	345124511903080
3684	1254	345124512649507
3729	1250	345124513288990
3785	1246	345124514096078
3874	1252	345124515163920
3937	1263	345124515976888
4002	1274	345124516804414
4061	1283	345124517397959
4091	1285	345124518224166
4084	1282	345124518988226
4055	1270	345124519826586
4016	1268	345124520646617
3983	1279	345124521435810
3981	1297	345124522161352
3999	1324	345124522985049
4043	1354	345124523636498
4068	1374	345124524442602
4108	1393	345124525197028
4144	1410	345124526008304
4167	1416	345124526842673
4179	1405	345124527661821
4198	1402	345124528468107
4210	1412	345124529277548
4225	1432	345124529894362
4235	1449	345124530799764
4230	1478	345124531571742
4208	1493	345124532394818
4170	1501	345124533198329
4134	1505	345124534007148
4114	1507	345124534839752
4121	1497	345124535660595
4118	1484	345124536461706
4112	1474	345124537259473
4094	1460	345124538065304
4095	1454	345124538897671
4125	1454	345124539691884
4165	1467	345124540412309
4194	1481	345124541219243
4234	1497	345124542058833
4272	1506	345124542864394
4301	1510	345124543666419
4329	1502	345124544468094
4353	1488	345124545290401
4355	1473	345124546097098
4354	1463	345124546944998
4360	1452	345124547776617
4353	1444	345124548581499
4317	1430	345124549345710
4322	1423	345124550169022
4368	1430	345124551029018
4434	1444	345124551879814
4524	1449	345124552709353
4624	1440	345124553529451
4707	1425	345124554164459
4761	1420	345124554913591
4818	1420	345124555748537
4931	1424	345124556570359
5035	1429	345124557288254
5077	1427	345124558101084
5048	1418	345124558933752
5023	1403	345124559766241
5031	1396	345124560584231
5074	1392	345124561187785
5119	1393	345124561998068
5187	1397	345124562838943
5269	1396	345124563751331
5365	1388	345124564557836
5457	1379	345124565287249
5526	1373	345124566115628
5579	1368	345124566945595
5623	1362	345124567779979
5648	1357	345124568598129
5626	1345	345124569400950
5571	1343	345124570222210
5522	1351	345124571171098
5503	1372	345124571986488
5501	1394	345124572806968
5508	1413	345124573636342
5502	1425	345124574442049
5493	1434	345124575265415
5476	1441	345124576071890
5432	1443	345124576909101
5377	1440	345124577689107
5326	1427	345124578497422
5280	1419	345124579306253
5224	1434	345124580202285
5178	1460	345124581042076
5133	1505	345124581878540
5116	1546	345124582710755
5105	1562	345124583509533
5087	1564	345124584317060
5063	1556	345124585138102
5048	1539	345124585971198
5034	1522	345124586810201
5006	1510	345124587623181
4959	1502	345124588262306
4918	1508	345124589071895
4871	1528	345124589906647
4827	1544	345124590817246
4787	1555	345124591622693
4756	1559	345124592389180
4732	1553	345124593162990
4721	1539	345124593974074
4682	1531	345124594813119
4649	1533	345124595649308
4619	1534	345124596456608
4617	1534	345124597265297
4623	1535	345124598064236
4627	1541	345124598901221
4621	1548	345124599738958
4608	1559	345124600585309
4595	1571	345124601403853
4575	1573	345124602215207
4548	1560	345124602790004
4520	1553	345124603593006
4477	1552	345124604401712
4437	1557	345124605143191
4433	1564	345124605982211
4456	1580	345124606823188
4462	1595	345124607626265
4449	1612	345124608435316
4428	1625	345124609241312
4390	1627	345124610106684
4333	1612	345124611120550
4302	1598	345124611961111
4285	1590	345124612722276
4259	1596	345124613311300
4234	1608	345124614125437
4239	1630	345124615112242
4254	1650	345124615946711
4240	1667	345124616779980
4233	1682	345124617411137
4242	1693	345124618223196
4239	1692	345124619031306
4215	1676	345124619879407
4176	1664	345124620701526
4150	1661	345124621357812
4133	1665	345124622141080
4136	1677	345124622972607
4130	1693	345124623659473
4123	1704	345124624484728
4093	1717	345124625314936
4061	1733	345124626035413
4031	1741	345124626983486
4003	1730	345124627785626
3993	1713	345124628590038
3966	1700	345124629413522
3948	1689	345124630236224
3915	1676	345124631050802
3884	1678	345124631876951
3895	1693	345124632705853
3900	1712	345124633514591
3868	1728	345124634338959
3844	1731	345124635159182
3818	1714	345124635983242
3809	1710	345124636744099
3811	1711	345124637554706
3814	1715	345124638296746
3805	1719	345124639117936
3782	1717	345124640070545
3766	1698	345124640969399
3781	1682	345124641688251
3809	1678	345124642419797
3839	1675	345124643229440
3846	1667	345124644052760
3813	1659	345124645040767
3821	1645	345124645888007
3856	1639	345124646539682
3883	1641	345124647338069
3901	1661	345124648143222
3916	1684	345124648872731
3911	1705	345124649678900
3884	1725	345124650492022
3849	1738	345124651318162
3812	1734	345124652144171
3788	1717	345124652792423
3786	1706	345124653614483
3766	1705	345124654425703
3731	1718	345124655245586
3723	1733	345124656074237
3743	1747	345124656910732
3791	1769	345124657745925
3845	1793	345124658547780
3881	1816	345124659319584
3893	1820	345124660141036
3887	1803	345124661034612
3875	1792	345124661689563
3866	1798	345124662496192
3848	1811	345124663297864
3840	1823	345124664106082
3843	1826	345124664936741
3832	1830	345124665781159
3797	1836	345124666588276
3787	1835	345124667385655
3793	1821	345124668205571
3819	1801	345124669012784
3872	1780	345124669702812
3929	1764	345124670557483
4009	1745	345124671379627
4119	1736	345124672189805
4221	1733	345124672953444
4290	1727	345124673679272
4341	1717	345124674484847
4393	1697	345124675328729
4394	1680	345124676139240
4362	1665	345124676972001
4340	1646	345124677691106
4350	1637	345124678471315
4404	1634	345124679283495
4498	1640	345124679922790
4575	1650	345124680758896
4697	1668	345124681571319
4814	1683	345124682372490
4897	1691	345124683199479
4930	1690	345124684008217
4961	1674	345124685006209
4950	1675	345124685701996
4922	1681	345124686509837
4946	1702	345124687337120
4975	1731	345124688147810
5014	1766	345124688983384
5062	1802	345124689819157
5106	1825	345124690646678
5137	1833	345124691460551
5139	1824	345124692293247
5099	1811	345124693098617
5046	1793	345124693940578
5010	1777	345124694546686
4993	1768	345124695367824
4974	1760	345124696177908
4958	1768	345124696989651
4956	1794	345124697825430
4958	1830	345124698632055
4961	1859	345124699452621
4933	1868	345124700275004
4899	1862	345124701085350
4913	1840	345124701951184
4928	1822	345124702762166
4918	1809	345124703571106
4906	1801	345124704357494
4900	1785	345124705164416
4881	1778	345124705983998
4844	1783	345124706840488
4795	1788	345124707644837
4758	1794	345124708450669
4720	1793	345124709048740
4684	1788	345124709690054
4657	1779	345124710520534
4653	1768	345124711421851
4687	1759	345124712232782
4744	1744	345124713045991
4817	1723	345124713876670
4884	1716	345124714684548
4935	1718	345124715299057
4959	1729	345124716125671
4980	1744	345124716964906
4980	1749	345124717806353
4957	1731	345124718631267
4926	1713	345124719408579
4890	1695	345124720234011
4867	1681	345124721080238
4876	1673	345124721939922
4910	1677	345124722784469
4969	1688	345124723609135
5060	1695	345124724416675
5202	1699	345124725243709
5372	1689	345124725820761
5486	1675	345124726627471
5630	1659	345124727433029
5706	1651	345124728226478
5714	1648	345124729028592
5670	1658	345124729690618
5660	1677	345124730478841
5648	1706	345124731290637
5605	1740	345124732049641
5556	1774	345124732900566
5533	1797	345124733735240
5552	1811	345124734540155
5547	1823	345124735353766
5575	1827	345124736165627
5649	1824	345124737000507
5767	1813	345124737674517
5860	1809	345124738309700
5934	1821	345124739143118
5961	1869	345124740103830
5923	1930	345124740937323
5882	1987	345124741775517
5840	2034	345124742431007
5815	2056	345124743242053
5763	2056	345124744051626
5710	2045	345124744886989
5691	2023	345124745697469
5687	2004	345124746500422
5668	1984	345124747333513
5628	1967	345124748141732
5569	1946	345124748919582
5530	1931	345124749778377
5538	1926	345124750604106
5577	1930	345124751413483
5638	1933	345124752227879
5717	1941	345124753041247
5776	1953	345124753876439
5829	1956	345124754732985
5902	1940	345124755561714
5976	1932	345124756365318
6013	1925	345124757054498
6006	1912	345124757897244
5956	1894	345124758729222
5915	1873	345124759555315
5927	1853	345124760381334
6001	1834	345124761176723
6108	1821	345124761994132
6255	1801	345124762846924
6398	1787	345124763621792
6491	1781	345124764444459
6558	1792	345124765272516
6605	1801	345124766082442
6607	1805	345124766906780
6559	1797	345124767707996
6556	1785	345124768513604
6615	1792	345124769346274
6725	1807	345124770171726
6897	1825	345124771083337
7061	1836	345124771908858
7154	1844	345124772740246
7193	1849	345124773552495
7166	1846	345124774380078
7103	1829	345124775206489
7056	1810	345124775804412
7005	1801	345124776627133
6957	1784	345124777424683
6935	1771	345124778057024
6884	1759	345124778886906
6853	1746	345124779690846
6861	1739	345124780513432
6911	1758	345124781350234
6975	1794	345124782057602
7036	1826	345124782890546
7116	1850	345124783691533
7183	1856	345124784483288
7224	1841	345124785306238
7235	1824	345124786142327
7217	1826	345124786981977
7180	1833	345124787870942
7137	1843	345124788641300
7103	1854	345124789452723
7169	1846	345124790275216
7281	1827	345124791106710
7368	1809	345124791946682
7398	1797	345124792674330
7379	1781	345124793499047
7339	1764	345124794270474
7282	1752	345124795247896
7224	1739	345124796055475
7224	1722	345124796800138
7275	1723	345124797608420
7373	1720	345124798436070
7466	1706	345124799236741
7535	1696	345124800144477
7548	1686	345124801030114
7503	1692	345124801693628
7456	1680	345124802502931
7509	1671	345124803328299
7654	1669	345124804137739
7812	1672	345124805201883
7877	1679	345124806029570
7926	1699	345124806864368
7921	1709	345124807666274
7850	1707	345124808491781
7777	1692	345124809287258
7696	1687	345124810135345
7604	1700	345124811075565
7548	1703	345124811914144
7546	1697	345124812743941
7580	1690	345124813567541
7608	1681	345124814172458
7585	1680	345124815128052
7546	1683	345124815959339
7523	1687	345124816791240
7499	1685	345124817444043
7479	1679	345124818271942
7472	1673	345124819078315
7474	1660	345124820034010
7472	1647	345124820966104
7454	1655	345124821566134
7431	1667	345124822177126
7380	1686	345124823058768
7302	1716	345124823689333
7247	1736	345124824492613
7174	1759	345124825345729
7142	1772	345124826136350
7128	1771	345124826974062
7124	1754	345124827804783
7115	1739	345124828609582
7110	1742	345124829413860
7089	1765	345124830185217
7041	1792	345124831066611
6979	1816	345124831902882
6915	1838	345124832663573
6851	1846	345124833471108
6787	1844	345124834061622
6770	1841	345124834910902
6764	1837	345124835764705
6743	1830	345124836571006
6729	1812	345124837319537
6702	1804	345124838149117
6658	1807	345124838981788
6636	1810	345124839840186
6695	1811	345124840659107
6778	1813	345124841476322
6790	1819	345124842284825
6736	1820	345124843073423
6730	1816	345124843907160
6778	1808	345124844681321
6844	1793	345124845507738
6930	1778	345124846281056
7008	1777	345124847080963
7092	1783	345124847911717
7152	1788	345124848689507
7178	1780	345124849490908
7165	1783	345124850173023
7145	1801	345124851181129
7144	1813	345124852020141
7116	1819	345124852816256
7050	1812	345124853624294
6999	1794	345124854428909
6997	1786	345124855256758
7030	1794	345124856064592
7086	1819	345124856921515
7131	1856	345124857755186
7191	1889	345124858563036
7292	1909	345124859366444
7382	1908	345124860187244
7517	1886	345124861026106
7613	1871	345124861883378
7689	1864	345124862660261
7714	1877	345124863464793
7688	1905	345124864287501
7623	1947	345124865130166
7642	1976	345124865969921
7732	1986	345124866800602
7857	1982	345124867439635
7959	1967	345124868245283
8059	1945	345124869065155
8139	1930	345124869688767
8149	1931	345124870511367
8149	1931	345124871319400
8149	1923	345124872125183
8149	1911	345124872956600
8149	1922	345124873690839
8149	1959	345124874500460
8148	2010	345124875327900
8101	2046	345124876129872
8046	2068	345124876966999
8018	2075	345124877806881
8053	2068	345124878622824
8109	2053	345124879427518
8148	2032	345124880244505
8149	2016	345124881072401
8149	2018	345124881906799
8149	2031	345124882733799
8149	2049	345124883532602
8148	2056	345124884337790
8149	2063	345124885162657
8149	2079	345124886015190
8149	2099	345124886861373
8148	2111	345124887665264
8149	2105	345124888465596
8149	2084	345124889277834
8149	2068	345124890157355
8149	2048	345124891046564
8149	2037	345124891878787
8148	2030	345124892688078
8149	2014	345124893514931
8148	1994	345124894323663
8148	1972	345124895149084
8149	1958	345124895978928
8149	1949	345124896809371
8149	1930	345124897619152
8149	1910	345124898444596
8149	1888	345124899251507
8149	1869	345124900150619
8149	1850	345124900912579
8149	1838	345124901759110
8148	1842	345124902587468
8149	1853	345124903408450
8149	1869	345124904213724
8149	1896	345124905216720
8149	1918	345124906060796
8149	1930	345124906945287
8148	1929	345124907843830
8148	1912	345124908649468
8148	1892	345124909314116
8148	1882	345124910128931
8148	1879	345124911067443
8148	1875	345124911877387
8148	1880	345124912657057
8148	1890	345124913431612
8148	1908	345124914215207
8148	1928	345124915119665
8148	1943	345124915943115
8148	1957	345124916748474
8148	1970	345124917420093
8148	1979	345124918124794
8148	1978	345124918930179
8148	1963	345124919738601
8149	1952	345124920533028
8148	1954	345124921324986
8148	1964	345124922111284
8148	1983	345124922933665
8148	2006	345124923666283
8149	2022	345124924475623
8148	2035	345124925238550
8149	2039	345124926050664
8148	2036	345124926884402
8148	2017	345124927736649
8148	1995	345124928558270
8148	1973	345124929376169
8148	1966	345124930172102
8148	1985	345124931050326
8148	2022	345124931886518
8148	2066	345124932647328
8148	2103	345124933461483
8148	2123	345124934074640
8148	2124	345124935058117
8148	2117	345124935899587
8148	2102	345124936709882
8148	2098	345124937517511
8148	2099	345124938198928
8148	2094	345124939018235
8148	2107	345124939876168
8148	2137	345124940568202
8148	2163	345124941391644
8148	2189	345124942195743
8148	2194	345124943016917
8149	2183	345124943853655
8149	2164	345124944679889
8148	2142	345124945510132
8149	2132	345124946322722
8148	2134	345124947120431
8148	2139	345124947954464
8148	2136	345124948702225
8149	2126	345124949527849
8149	2110	345124950347199
8149	2107	345124951137215
8148	2108	345124951962481
8148	2103	345124952778695
8148	2095	345124953635998
8148	2097	345124954441946
8149	2091	345124955250222
8149	2080	345124956042910
8148	2085	345124956862923
8148	2093	345124957646413
8148	2105	345124958433702
8149	2115	345124959046363
8148	2128	345124959861316
8149	2151	345124960670128
8148	2156	345124961480681
8149	2149	345124962122946
8148	2136	345124963034676
8148	2116	345124963866168
8149	2123	345124964636905
8149	2147	345124965347746
8149	2175	345124966178672
8149	2196	345124967018310
8149	2195	345124967904498
8149	2177	345124968710945
8127	2164	345124969455577
8090	2171	345124970277715
8077	2168	345124971115598
8060	2152	345124971950582
8045	2162	345124972795446
8022	2179	345124973604839
8017	2194	345124974414738
8005	2198	345124975243331
7956	2201	345124976072291
7884	2197	345124976911736
7833	2180	345124977718187
7878	2163	345124978544055
8009	2146	345124979356778
8093	2125	345124980200779
8108	2116	345124981058202
8079	2116	345124981899285
8029	2115	345124982708312
7964	2114	345124983510148
7914	2125	345124984099375
7899	2135	345124984937229
7889	2149	345124985805453
7890	2143	345124986584428
7913	2125	345124987337573
7963	2106	345124988126993
8021	2093	345124988964032
8060	2075	345124989802358
8093	2057	345124990648056
8102	2062	345124991462166
8070	2072	345124992274233
8013	2067	345124993099431
7968	2071	345124993936976
7944	2085	345124994774340
7917	2108	345124995621270
7886	2115	345124996430650
7846	2097	345124997238943
7883	2089	345124998040055
8007	2099	345124998873357
8135	2124	345124999677608
8148	2158	345125000516478
8149	2191	345125001330753
8149	2197	345125002147128
8149	2181	345125002905069
8148	2160	345125003711968
8149	2148	345125004522644
8148	2148	345125005370551
8149	2149	345125006187497
8148	2143	345125006955765
8149	2130	345125007803896
8149	2125	345125008611873
8149	2128	345125009421857
8149	2140	345125010271585
8148	2144	345125011079012
8149	2137	345125011918002
8148	2128	345125012681950
8149	2116	345125013496617
8149	2101	345125014307340
8149	2122	345125015159890
8148	2163	345125015996598
8149	2194	345125016891787
8149	2212	345125017697224
8149	2223	345125018503086
8149	2225	345125019328018
8149	2209	345125020169196
8149	2200	345125021006454
8149	2206	345125021850767
8149	2223	345125022674603
8149	2245	345125023481227
8149	2252	345125024296715
8149	2238	345125025175468
8148	2218	345125026015064
8100	2198	345125026860718
8079	2175	345125027686097
8097	2156	345125028493303
8122	2140	345125029302798
8148	2123	345125030156815
8149	2123	345125031049517
8149	2125	345125031852870
8149	2134	345125032673374
8149	2148	345125033454437
8148	2170	345125034093543
8131	2182	345125034953912
8105	2168	345125035803045
8053	2150	345125036621238
7995	2148	345125037430104
7923	2147	345125038208417
7887	2146	345125039028742
7860	2153	345125040047038
7867	2163	345125040968445
7874	2174	345125041703277
7870	2183	345125042334565
7864	2186	345125043139854
7848	2187	345125043979436
7789	2186	345125044705210
7749	2180	345125045533159
7734	2162	345125046344175
7692	2164	345125047148674
7619	2193	345125047982648
7573	2226	345125048834239
7524	2246	345125049654422
7469	2255	345125050484565
7436	2254	345125051297494
7409	2235	345125052130481
7341	2232	345125052837368
7300	2232	345125053645879
7297	2235	345125054443527
7330	2235	345125055264846
7353	2227	345125056073252
7348	2205	345125056925733
7303	2187	345125057720707
7261	2171	345125058526261
7222	2149	345125059100276
7184	2139	345125059936150
7136	2128	345125060773289
7114	2104	345125061605193
7069	2084	345125062413465
7009	2068	345125063213222
6991	2056	345125064035114
7014	2056	345125064876354
7071	2062	345125065700714
7119	2063	345125066534286
7131	2056	345125067340036
7077	2034	345125068149130
7048	2010	345125068909654
7073	2002	345125069718025
7145	1994	345125070541007
7195	1975	345125071373330
7219	1962	345125072180253
7194	1947	345125073064666
7147	1933	345125073895585
7078	1924	345125074702742
7054	1935	345125075536491
7073	1953	345125076360662
7098	1966	345125077169928
7129	1970	345125077838433
7167	1971	345125078660498
7205	1961	345125079472193
7216	1944	345125080287447
7206	1950	345125081100921
7184	1965	345125081945686
7128	1979	345125082782097
7078	2007	345125083605867
7034	2030	345125084414458
7009	2040	345125085242504
7028	2043	345125086047332
7053	2038	345125086883895
7057	2021	345125087692130
7078	2013	345125088525926
7117	2025	345125089341992
7144	2047	345125090168528
7104	2071	345125091079097
7034	2085	345125091916332
6985	2085	345125092581021
6959	2079	345125093404813
6948	2067	345125094204007
6932	2081	345125095162560
6888	2103	345125095996837
6865	2123	345125096827989
6870	2118	345125097635370
6869	2099	345125098461301
6869	2085	345125099266290
6864	2068	345125100168337
6853	2049	345125100928850
6835	2042	345125101814133
6782	2037	345125102626038
6814	2046	345125103453418
6883	2045	345125104263155
6959	2027	345125105241156
6985	2049	345125106075483
6964	2083	345125106912932
6901	2104	345125107722428
6842	2129	345125108541878
6774	2149	345125109331381
6758	2162	345125110173120
6788	2146	345125111092389
6759	2138	345125111935526
6712	2132	345125112770172
6707	2121	345125113575255
6696	2097	345125114386880
6693	2088	345125115212598
6741	2099	345125116042092
6820	2109	345125116873022
6879	2122	345125117682364
6896	2131	345125118507118
6842	2142	345125119383625
6776	2156	345125120203146
6731	2144	345125121100397
6693	2140	345125121958883
6647	2152	345125122796744
6666	2166	345125123601407
6682	2175	345125124411929
6680	2192	345125125240861
6670	2211	345125126046429
6621	2212	345125126934039
6562	2192	345125127772535
6496	2173	345125128595279
6431	2166	345125129405858
6385	2172	345125130227216
6361	2187	345125131206176
6358	2198	345125131972485
6374	2205	345125132856166
6373	2205	345125133656086
6347	2204	345125134462580
6322	2191	345125135282944
6293	2168	345125136097089
6242	2162	345125136937919
6224	2187	345125137774259
6223	2225	345125138574040
6281	2262	345125139385506
6367	2287	345125140215716
6430	2286	345125141098544
6469	2271	345125141957209
6492	2290	345125142795855
6476	2299	345125143619515
6479	2301	345125144427611
6505	2297	345125145241277
6477	2290	345125146046537
6444	2281	345125146883948
6494	2282	345125147691921
6573	2292	345125148519450
6633	2306	345125149330571
6660	2310	345125150175317
6681	2306	345125151070412
6694	2300	345125151905549
6725	2281	345125152723037
6770	2269	345125153545703
6793	2281	345125154345891
6773	2310	345125155170947
6720	2355	345125156023200
6655	2392	345125156858264
6592	2420	345125157664876
6528	2442	345125158465301
6480	2458	345125159098051
6447	2464	345125159947685
6410	2453	345125160922302
6372	2423	345125161740215
6335	2405	345125162550066
6293	2403	345125163220911
6308	2422	345125164042225
6336	2463	345125164882341
6392	2510	345125165724389
6546	2541	345125166532025
6667	2558	345125167338769
6705	2563	345125168143313
6700	2573	345125168974507
6651	2585	345125169696007
6613	2573	345125170547221
6613	2551	345125171361132
6631	2549	345125172167228
6611	2564	345125172930077
6577	2577	345125173599670
6536	2584	345125174406215
6494	2596	345125175244173
6528	2593	345125176052136
6619	2590	345125176894792
6707	2581	345125177700059
6769	2566	345125178511915
6803	2540	345125179317384
6795	2520	345125180187808
6753	2509	345125181028430
6703	2494	345125181869210
6638	2473	345125182688508
6569	2453	345125183498100
6531	2438	345125184102271
6555	2423	345125184955930
6608	2394	345125185863249
6680	2373	345125186669367
6759	2368	345125187482324
6816	2370	345125188227039
6857	2362	345125189044954
6881	2350	345125189902626
6864	2332	345125190723155
6805	2323	345125191541783
6769	2319	345125192344948
6778	2309	345125193153798
6843	2291	345125193989179
6905	2271	345125194849709
6974	2249	345125195676151
7013	2227	345125196485773
6961	2213	345125197246338
6959	2209	345125198055583
7021	2212	345125198891283
7085	2217	345125199713875
7118	2204	345125200539627
7115	2184	345125201361893
7089	2171	345125202172357
7026	2187	345125202854182
6992	2197	345125203659264
6959	2194	345125204486082
6909	2179	345125205301649
6925	2155	345125206121651
7005	2137	345125206946728
7117	2122	345125207779404
7266	2102	345125208582096
7420	2086	345125209404748
7521	2070	345125210214331
7602	2093	345125211104422
7616	2109	345125211956306
7551	2110	345125212791205
7518	2097	345125213596116
7490	2073	345125214424694
7472	2060	345125215228135
7482	2054	345125216054860
7509	2042	345125216887487
7543	2032	345125217692534
7628	2027	345125218500333
7732	2027	345125219334904
7799	2039	345125220197125
7806	2071	345125221037478
7777	2097	345125221875073
7702	2107	345125222680494
7624	2092	345125223486473
7586	2101	345125224310334
7597	2118	345125225192741
7596	2131	345125226028490
7600	2125	345125226882718
7649	2103	345125227689039
7704	2082	345125228473910
7755	2068	345125229235405
7793	2046	345125230168207
7831	2032	345125231074743
7881	2027	345125231932287
7921	2025	345125232738159
7902	2014	345125233549267
7847	1995	345125234355896
7775	1976	345125235184035
7746	1959	345125236018782
7747	1948	345125236771570
7764	1949	345125237579532
7783	1955	345125238231130
7795	1960	345125239055824
7831	1971	345125239895635
7859	1972	345125240688230
7877	1966	345125241470484
7891	1963	345125242250687
7917	1950	345125243141751
7942	1930	345125243974980
7994	1914	345125244694303
8071	1907	345125245503824
8148	1899	345125246277841
8148	1900	345125247060393
8148	1911	345125247874462
8135	1925	345125248574043
8122	1936	345125249358969
8132	1954	345125250160695
8149	1983	345125251024295
8149	1991	345125251835997
8149	1974	345125252644793
8149	1958	345125253469701
8149	1946	345125254274094
8149	1935	345125255192605
8149	1928	345125256049992
8149	1929	345125256891367
8149	1937	345125257699415
8149	1952	345125258504762
8148	1963	345125259310675
8149	1979	345125260193093
8149	1990	345125261050537
8148	1998	345125261892411
8149	1993	345125262749832
8148	1975	345125263540834
8149	1963	345125264342431
8149	1998	345125265199606
8149	2071	345125266052932
8149	2124	345125266890062
8148	2149	345125267690184
8149	2153	345125268513189
8137	2143	345125269319306
8095	2122	345125270179148
8049	2098	345125271097745
7992	2073	345125271939068
7918	2062	345125272745235
7838	2065	345125273571907
7763	2079	345125274346795
7692	2090	345125275179699
7621	2092	345125275981432
7587	2089	345125276664366
7570	2086	345125277439485
7508	2082	345125278233363
7435	2086	345125279025730
7378	2080	345125279829887
7305	2061	345125280641210
7253	2044	345125281426300
7212	2036	345125282200270
7172	2027	345125283020999
7126	2029	345125283837159
7102	2028	345125284618344
7087	2017	345125285405120
7065	1999	345125286080274
7057	1985	345125286883884
7039	1969	345125287676254
7006	1952	345125288458371
6947	1942	345125289277697
6919	1948	345125290199180
6895	1947	345125291097090
6853	1933	345125291916810
6818	1927	345125292602460
6780	1911	345125293405899
6731	1905	345125294225727
6679	1908	345125295177332
6630	1900	345125296021109
6590	1881	345125296857566
6572	1876	345125297677246
6622	1893	345125298453756
6717	1925	345125299287414
6793	1952	345125300205552
6787	1968	345125300981838
6740	1974	345125301817590
6731	1969	345125302622880
6754	1951	345125303427171
6800	1942	345125304232067
6854	1927	345125305258734
6898	1910	345125306082520
6946	1899	345125306916946
7014	1915	345125307740514
7085	1941	345125308545854
7140	1966	345125309231418
7156	1986	345125310178055
7136	1986	345125311113771
7081	1973	345125311928352
7085	1956	345125312729245
7110	1938	345125313534380
7128	1917	345125314343509
7129	1902	345125315194076
7115	1902	345125316010534
7081	1902	345125316815466
7040	1894	345125317606932
6979	1881	345125318384866
6922	1869	345125319170911
6850	1864	345125320120089
6792	1868	345125321001452
6766	1866	345125321806465
6731	1861	345125322596495
6689	1842	345125323371711
6654	1835	345125324150731
6619	1836	345125324979142
6568	1835	345125325710499
6518	1839	345125326487267
6455	1844	345125327260904
6394	1843	345125328036464
6333	1826	345125328848935
6288	1818	345125329678505
6238	1823	345125330504393
6184	1830	345125331314542
6145	1852	345125331981648
6137	1870	345125332869855
6131	1884	345125333689968
6130	1887	345125334515350
6128	1883	345125335341165
6121	1872	345125336118508
6110	1855	345125336973839
6071	1837	345125337816988
6010	1829	345125338639937
5970	1841	345125339466430
5916	1869	345125340241792
5852	1906	345125341082426
5793	1942	345125341915667
5737	1968	345125342721431
5681	1982	345125343531281
5632	1988	345125344355733
5581	1985	345125345191787
5538	1966	345125346029997
5506	1962	345125346855640
5457	1979	345125347657472
5447	1999	345125348462314
5458	2024	345125349207877
5446	2040	345125350163293
5388	2028	345125351064931
5380	2008	345125351920706
5473	1985	345125352727963
5612	1969	345125353535325
5791	1967	345125354328929
5998	1973	345125355306999
6104	1966	345125356118404
6150	1950	345125356970580
6123	1939	345125357812464
6085	1945	345125358623958
6103	1941	345125359423871
6177	1926	345125360254074
6294	1911	345125361115859
6394	1894	345125361971427
6495	1879	345125362806082
6629	1869	345125363612027
6783	1878	345125364440188
6932	1875	345125365241648
7008	1855	345125366077274
6992	1848	345125366913539
6925	1843	345125367719616
6870	1835	345125368495679
6838	1824	345125369323963
6817	1809	345125370213087
6807	1791	345125371138327
6809	1776	345125371973982
6806	1775	345125372803362
6794	1781	345125373610816
6771	1792	345125374434277
6748	1815	345125375256754
6715	1833	345125376073711
6654	1848	345125376926079
6640	1857	345125377732311
6640	1851	345125378539625
6613	1835	345125379360452
6554	1839	345125380200010
6527	1865	345125381041667
6510	1891	345125381998878
6496	1902	345125382812265
6509	1903	345125383618637
6536	1904	345125384420074
6518	1916	345125385253945
6468	1933	345125386067097
6398	1938	345125386932266
6339	1932	345125387738612
6304	1916	345125388542644
6300	1903	345125389372337
6274	1918	345125390202775
6211	1942	345125391097031
6181	1957	345125391914899
6187	1958	345125392718837
6197	1955	345125393529172
6192	1938	345125394353999
6177	1918	345125395209593
6137	1904	345125396046137
6148	1900	345125396744129
6142	1886	345125397550264
6129	1875	345125398359320
6114	1870	345125399182296
6061	1865	345125400146025
6012	1869	345125401036671
5983	1866	345125401899355
5957	1857	345125402716513
5958	1852	345125403531453
5984	1846	345125404358517
6021	1829	345125405132922
6038	1816	345125405972485
6059	1809	345125406848296
6092	1819	345125407658089
6066	1843	345125408468080
6008	1873	345125409291688
5948	1888	345125410197828
5882	1872	345125411138279
5864	1871	345125412000374
5877	1862	345125412834711
5923	1858	345125413646695
5972	1850	345125414480086
5989	1844	345125415267006
6011	1842	345125416088765
6018	1843	345125416923419
6003	1851	345125417731255
5985	1869	345125418545761
5981	1884	345125419338006
5951	1890	345125420262363
5888	1878	345125421167059
5826	1860	345125421999587
5794	1863	345125422832813
5792	1878	345125423626247
5840	1883	345125424448049
5928	1891	345125425278953
6001	1895	345125426072858
6080	1886	345125426927508
6162	1868	345125427733575
6227	1851	345125428538494
6277	1840	345125429303911
6291	1831	345125430210407
6254	1817	345125431101748
6207	1798	345125431887138
6156	1780	345125432671610
6099	1769	345125433478592
6069	1762	345125434275088
6078	1750	345125435201640
6179	1737	345125436040936
6356	1732	345125436801696
6540	1727	345125437592562
6740	1716	345125438397692
6881	1702	345125439221518
6957	1680	345125440171963
6948	1661	345125441072825
6914	1648	345125441910826
6905	1636	345125442723966
6901	1645	345125443534649
6849	1657	345125444362376
6853	1661	345125445204328
6922	1648	345125446046987
7033	1639	345125446880791
7194	1642	345125447690726
7383	1631	345125448500938
7597	1637	345125449322321
7777	1637	345125450216159
7874	1620	345125451118163
7912	1608	345125451979147
7882	1594	345125452772224
7814	1582	345125453580976
7748	1579	345125454386071
7747	1582	345125455213591
7821	1597	345125456051640
7950	1626	345125456894272
8061	1650	345125457703450
8147	1673	345125458514879
8148	1686	345125459318601
8149	1677	345125460224655
8149	1667	345125461051498
8148	1683	345125461906039
8115	1701	345125462678795
8071	1710	345125463486508
8012	1708	345125464315660
7964	1710	345125465204105
7929	1711	345125466058235
7920	1731	345125467019917
7946	1753	345125467905418
7912	1763	345125468845244
7856	1761	345125469671156
7833	1745	345125470496701
7793	1728	345125471300816
7719	1714	345125472125142
7659	1715	345125472962369
7626	1732	345125473637195
7619	1754	345125474306557
7628	1779	345125475227081
7649	1804	345125476065208
7695	1813	345125476824341
7760	1809	345125477632787
7835	1793	345125478442457
7879	1774	345125479269866
7859	1764	345125480204012
7787	1743	345125481098290
7795	1726	345125481884534
7849	1718	345125482694624
7904	1716	345125483488027
7946	1719	345125484313020
7967	1739	345125485153334
7987	1757	345125485992754
7977	1769	345125486848302
7956	1762	345125487653165
7958	1749	345125488455898
7983	1743	345125489283268
7954	1729	345125490205880
7902	1723	345125491097051
7924	1742	345125491931309
7974	1753	345125492605802
8026	1750	345125493416181
8060	1733	345125494229548
8069	1711	345125495139146
8044	1690	345125495975194
8008	1673	345125496776017
7978	1661	345125497575646
7947	1653	345125498383188
7906	1642	345125499210796
7859	1630	345125500174133
7800	1620	345125500875911
7755	1608	345125501705414
7783	1600	345125502516347
7841	1595	345125503323491
7894	1599	345125504151309
7942	1617	345125504887000
7958	1631	345125505714348
8005	1639	345125506518649
8057	1623	345125507314739
8074	1611	345125508126663
8046	1609	345125508981312
7988	1611	345125509820498
7934	1631	345125510652380
7853	1663	345125511470292
7794	1671	345125512288612
7796	1660	345125513097095
7813	1658	345125513946660
7860	1658	345125514753039
7915	1662	345125515580811
7911	1660	345125516404498
7889	1658	345125517208643
7876	1653	345125518041770
7846	1643	345125518867349
7780	1626	345125519673322
7771	1609	345125520491967
7810	1593	345125521323578
7827	1594	345125522137214
7777	1623	345125523092829
7711	1655	345125523932844
7675	1680	345125524740789
7630	1704	345125525566325
7598	1720	345125526397235
7593	1727	345125527204080
7619	1722	345125528039211
7644	1709	345125528898056
7653	1695	345125529702135
7637	1680	345125530536649
7586	1663	345125531348134
7519	1653	345125532159727
7488	1639	345125532989439
7479	1628	345125533701887
7474	1643	345125534510127
7481	1690	345125535336783
7543	1737	345125536136959
7633	1753	345125536975255
7726	1760	345125537761919
7798	1762	345125538659393
7793	1747	345125539473242
7737	1736	345125540261649
7660	1749	345125541152446
7626	1768	345125541962649
7612	1776	345125542769391
7616	1782	345125543597989
7595	1788	345125544388564
7527	1788	345125545222791
7480	1770	345125546056456
7451	1760	345125546885377
7435	1752	345125547703218
7386	1744	345125548532878
7343	1738	345125549347755
7365	1735	345125550197332
7407	1727	345125551089625
7456	1715	345125551930520
7503	1694	345125552737619
7545	1679	345125553559384
7592	1661	345125554375888
7617	1660	345125555236230
7617	1658	345125556093159
7620	1643	345125556893386
7627	1646	345125557680223
7620	1664	345125558482011
7565	1693	345125559287545
7568	1727	345125560219801
7589	1742	345125561134718
7608	1730	345125561974312
7632	1715	345125562779865
7643	1697	345125563579397
7623	1690	345125564388823
7613	1710	345125565225076
7601	1745	345125566079485
7594	1760	345125566914375
7594	1768	345125567721495
7626	1767	345125568550335
7715	1760	345125569366737
7738	1751	345125570233985
7669	1733	345125571155944
7636	1719	345125571976525
7648	1708	345125572784923
7688	1692	345125573619249
7758	1678	345125574432227
7837	1687	345125575259022
7925	1710	345125576068501
8007	1728	345125576910933
8068	1730	345125577719298
8088	1735	345125578542953
8061	1734	345125579373204
8018	1719	345125580242146
7983	1710	345125581154690
8014	1720	345125581867975
8074	1733	345125582681267
8133	1758	345125583503810
8148	1784	345125584309754
8148	1795	345125585199438
8149	1784	345125586060974
8130	1765	345125586903353
8075	1746	345125587679254
8019	1730	345125588488992
7961	1721	345125589300596
7879	1718	345125590227683
7832	1728	345125591142060
7825	1740	345125591976597
7771	1741	345125592782775
7700	1727	345125593607881
7634	1709	345125594369261
7601	1691	345125595239121
7591	1681	345125596069418
7565	1693	345125596755400
7533	1703	345125597569954
7510	1713	345125598398816
7505	1716	345125599205188
7485	1722	345125600164010
7466	1719	345125601065392
7458	1706	345125601909328
7438	1689	345125602716344
7377	1684	345125603504939
7334	1703	345125604317319
7338	1736	345125605366614
7373	1739	345125606202920
7436	1730	345125606893979
7477	1728	345125607700297
7528	1717	345125608500963
7576	1709	345125609309320
7631	1690	345125610235660
7741	1686	345125611143896
7784	1681	345125611984156
7772	1665	345125612790875
7708	1646	345125613593321
7667	1632	345125614185581
7669	1618	345125615022780
7723	1614	345125615900734
7799	1626	345125616709051
7895	1641	345125617415919
7992	1652	345125618236411
8082	1649	345125619067161
8144	1635	345125619871313
8148	1616	345125620711894
8148	1605	345125621525449
8148	1590	345125622337381
8146	1593	345125623134778
8128	1601	345125623981654
8148	1605	345125624790759
8149	1598	345125625651315
8149	1588	345125626462027
8148	1578	345125627269513
8149	1565	345125628098061
8149	1564	345125628934994
8149	1572	345125629744347
8149	1586	345125630586006
8148	1598	345125631398581
8149	1606	345125632207764
8149	1602	345125633059682
8148	1591	345125633702074
8149	1591	345125634558920
8149	1602	345125635396003
8109	1616	345125636146692
8089	1607	345125636979824
8100	1591	345125637886711
8116	1576	345125638693056
8148	1563	345125639503828
8148	1559	345125640272249
8149	1570	345125641167659
8148	1577	345125642010844
8144	1569	345125642860198
8145	1557	345125643668378
8148	1543	345125644398553
8148	1540	345125645158825
8149	1533	345125645995044
8149	1519	345125646829915
8149	1501	345125647653823
8148	1486	345125648468383
8119	1480	345125649279073
8075	1489	345125650226900
8029	1512	345125651129509
7993	1532	345125651974299
7988	1550	345125652773313
7965	1554	345125653583153
7932	1542	345125654181992
7912	1532	345125655026245
7872	1522	345125655875247
7802	1528	345125656680749
7735	1547	345125657500715
7690	1569	345125658310547
7662	1584	345125659026333
7648	1591	345125659881202
7639	1589	345125660707168
7623	1579	345125661520961
7588	1563	345125662323707
7521	1552	345125663132227
7478	1541	345125663965344
7418	1538	345125664790825
7347	1551	345125665615558
7271	1566	345125666425555
7209	1565	345125667226357
7168	1552	345125668061328
7149	1546	345125668894509
7126	1537	345125669720535
7095	1524	345125670553105
7078	1507	345125671370965
7077	1497	345125672194822
7027	1483	345125673034085
6963	1467	345125673701470
6939	1460	345125674531447
6928	1445	345125675357650
6928	1430	345125676169890
6925	1418	345125676930178
6872	1407	345125677741294
6810	1403	345125678551270
6793	1396	345125679382167
6812	1387	345125680249720
6846	1392	345125681145846
6889	1384	345125681903177
6921	1371	345125682710054
6917	1359	345125683517825
6866	1348	345125684340334
6865	1337	345125685180849
6901	1339	345125686016506
6925	1344	345125686913961
6968	1340	345125687708776
7010	1342	345125688514097
7018	1338	345125689347043
7014	1328	345125690240502
6973	1340	345125691252076
6904	1359	345125692087935
6836	1374	345125692920083
6797	1383	345125693729365
6777	1380	345125694406118
6742	1367	345125695249854
6681	1365	345125696085094
6659	1366	345125696885434
6684	1362	345125697693066
6727	1364	345125698500202
6774	1371	345125699321688
6797	1384	345125700236092
6758	1395	345125701146241
6688	1393	345125701999997
6643	1380	345125702780739
6637	1376	345125703585150
6697	1371	345125704385711
6792	1369	345125705297627
6895	1370	345125706117131
6994	1369	345125706909544
7018	1358	345125707722888
6966	1348	345125708531990
6923	1344	345125709276505
6919	1365	345125710237681
6963	1374	345125711031371
7021	1368	345125711886497
7060	1364	345125712693325
7096	1382	345125713501135
7144	1397	345125714330757
7198	1404	345125715247611
7246	1408	345125716086315
7259	1409	345125716846158
7221	1409	345125717657168
7153	1407	345125718462652
7128	1399	345125719300257
7138	1386	345125720233740
7143	1386	345125721162273
7127	1388	345125721999461
7093	1398	345125722833226
7044	1410	345125723531653
6985	1415	345125724360571
6887	1433	345125725661457
6820	1446	345125726596742
6767	1432	345125727426033
6730	1420	345125728213017
6663	1404	345125729051783
6600	1394	345125729785153
6541	1407	345125730614903
6481	1436	345125731422707
6447	1470	345125732246954
6416	1505	345125733077398
6390	1531	345125733878745
6355	1532	345125734700823
6331	1523	345125735523641
6302	1511	345125736330754
6255	1514	345125737153510
6208	1519	345125737983455
6178	1515	345125738784813
6201	1509	345125739582559
6269	1511	345125740284996
6327	1526	345125741123874
6366	1561	345125741977277
6380	1588	345125742779332
6417	1595	345125743581807
6452	1582	345125744376849
6437	1576	345125745252732
6405	1566	345125746089520
6437	1553	345125747063863
6512	1542	345125747952952
6609	1523	345125748761719
6683	1513	345125749580620
6773	1518	345125750400827
6866	1526	345125751192202
6924	1516	345125752042353
6904	1509	345125752782185
6918	1508	345125753587018
6970	1502	345125754387821
6993	1487	345125755252355
7004	1482	345125756085316
7014	1492	345125756912700
6984	1504	345125757721856
6945	1521	345125758522685
6904	1536	345125759319461
6893	1542	345125760230347
6914	1534	345125761036218
6923	1547	345125761881845
6868	1584	345125762685480
6865	1627	345125763486287
6926	1667	345125764312280
7019	1685	345125765151683
7078	1683	345125765989343
7107	1673	345125766785418
7124	1664	345125767564870
7125	1646	345125768447581
7083	1640	345125769268371
7038	1660	345125770226475
7033	1687	345125771151529
7023	1704	345125771979249
7027	1715	345125772770984
7073	1718	345125773563706
7105	1716	345125774380080
7099	1701	345125775247911
7074	1685	345125776080642
7028	1686	345125776987639
6961	1690	345125777790722
6904	1690	345125778596115
6856	1677	345125779395391
6791	1691	345125780261767
6731	1751	345125781102767
6713	1813	345125781913502
6707	1850	345125782719227
6715	1866	345125783518050
6746	1872	345125784328512
6776	1863	345125785195159
6780	1847	345125786029716
6768	1839	345125786873633
6706	1832	345125787678780
6641	1822	345125788482336
6586	1809	345125789306650
6533	1802	345125790240316
6503	1811	345125791130821
6496	1830	345125791963314
6523	1850	345125792772085
6554	1874	345125793581595
6561	1883	345125794401364
6547	1875	345125795264628
6503	1859	345125796099217
6447	1860	345125796930001
6393	1880	345125797731659
6366	1906	345125798536191
6335	1926	345125799353129
6285	1949	345125800250672
6350	1965	345125801153478
6491	1967	345125802006436
6563	1950	345125802791157
6552	1946	345125803606661
6495	1951	345125804404149
6482	1950	345125805315116
6509	1935	345125806128891
6548	1925	345125806919715
6608	1924	345125807719620
6697	1929	345125808493481
6771	1939	345125809254039
6815	1939	345125810209834
6834	1920	345125811041015
6866	1908	345125811896498
6906	1894	345125812704104
6927	1883	345125813509116
6888	1875	345125814333507
6846	1875	345125815253141
6882	1875	345125816084731
6977	1871	345125816846155
7116	1871	345125817644682
7265	1866	345125818449050
7345	1858	345125819271832
7336	1848	345125820223863
7277	1836	345125821152298
7306	1826	345125821937064
7344	1809	345125822743367
7392	1806	345125823540757
7452	1820	345125824359325
7509	1850	345125825266364
7543	1883	345125826098231
7548	1918	345125826961792
7519	1939	345125827764920
7464	1950	345125828569106
7407	1958	345125829369434
7404	1962	345125830259903
7444	1950	345125831147699
7518	1942	345125831919594
7602	1957	345125832720981
7696	1992	345125833527054
7758	2044	345125834319789
7795	2115	345125835235313
7799	2171	345125836033720
7749	2199	345125836879017
7688	2199	345125837684791
7688	2177	345125838498350
7724	2164	345125839318354
7780	2166	345125840248065
7875	2173	345125841087075
7976	2187	345125841915706
8060	2224	345125842719665
8118	2265	345125843523507
8148	2298	345125844345291
8109	2311	345125845226582
8099	2299	345125846063768
8103	2279	345125846934480
8095	2259	345125847734121
8047	2270	345125848544037
7989	2307	345125849303534
7912	2345	345125850249198
7872	2353	345125851108804
7847	2335	345125851968438
7814	2310	345125852771679
7772	2296	345125853578885
7732	2283	345125854365067
7678	2267	345125855262934
7604	2246	345125856098522
7531	2239	345125856921823
7472	2243	345125857718358
7477	2247	345125858532368
7516	2231	345125859348232
7563	2214	345125860261427
7549	2211	345125861043025
7495	2201	345125861890464
7453	2178	345125862695125
7445	2154	345125863485431
7463	2130	345125864308079
7475	2105	345125865151253
7474	2084	345125865989158
7462	2073	345125866784759
7431	2070	345125867584987
7367	2057	345125868387196
7333	2047	345125869211208
7353	2051	345125870043104
7378	2059	345125870964555
7391	2041	345125871766545
7391	2036	345125872571347
7393	2039	345125873382946
7391	2050	345125874200550
7351	2059	345125875030139
7283	2064	345125875680874
7245	2065	345125876498943
7252	2052	345125877304754
7324	2032	345125878128091
7443	2028	345125878955464
7573	2028	345125879755485
7694	2022	345125880577411
7781	2009	345125881407648
7806	2009	345125882213989
7759	2015	345125883046250
7829	2017	345125883868988
7973	2019	345125884672475
8100	2019	345125885492324
8148	2019	345125886315091
8149	2013	345125887131709
8149	1997	345125887959179
8148	1984	345125888718542
8148	1971	345125889523754
8149	1954	345125890174849
8149	1947	345125891089897
8149	1947	345125891925267
8149	1936	345125892724270
8148	1917	345125893522785
8148	1907	345125894326623
8149	1912	345125895257805
8148	1919	345125896108811
8149	1921	345125896940129
8149	1921	345125897741777
8149	1912	345125898536407
8149	1901	345125899337351
8148	1878	345125900250337
8149	1864	345125901151758
8149	1854	345125901966513
8149	1835	345125902677838
8148	1828	345125903497609
8148	1825	345125904172315
8148	1816	345125905107069
8148	1801	345125906026506
8148	1785	345125906811659
8127	1774	345125907586884
8099	1757	345125908383071
8088	1738	345125909187350
8057	1718	345125910160115
8002	1726	345125911057489
7989	1726	345125911902406
8004	1722	345125912707019
8059	1717	345125913504480
8119	1715	345125914306238
8148	1713	345125915167713
8148	1698	345125916021049
8137	1682	345125916824678
8087	1674	345125917627269
8038	1668	345125918461955
8024	1652	345125919268503
8000	1644	345125920274038
8014	1658	345125921035582
8033	1681	345125921866223
8035	1709	345125922675035
8036	1714	345125923500918
8018	1710	345125924287658
7963	1705	345125925248382
7888	1697	345125926079004
7861	1683	345125926910586
7881	1673	345125927678163
7915	1667	345125928498453
7919	1683	345125929303294
7844	1694	345125930250163
7793	1679	345125931158132
7787	1671	345125931927721
7839	1676	345125932734328
7951	1719	345125933531343
8021	1779	345125934334368
8018	1840	345125935264346
7970	1855	345125936055062
7919	1839	345125936888026
7849	1823	345125937687400
7813	1815	345125938481616
7781	1825	345125939283880
7755	1826	345125940182383
7768	1808	345125941095085
7774	1801	345125941931697
7792	1800	345125942734673
7826	1815	345125943554339
7849	1835	345125944357629
7858	1839	345125945198347
7861	1840	345125946025201
7829	1849	345125946830809
7815	1849	345125947639520
7829	1831	345125948461094
7796	1810	345125949263129
7713	1795	345125950215879
7631	1809	345125951169799
7580	1863	345125952029892
7532	1916	345125952684819
7496	1931	345125953505430
7460	1917	345125954310374
7405	1922	345125955268121
7330	1951	345125956121990
7269	1989	345125956933364
7218	2034	345125957737720
7188	2077	345125958542693
7154	2107	345125959345879
7106	2120	345125960263856
7034	2106	345125961059391
7005	2095	345125961892911
6984	2107	345125962697320
6962	2120	345125963498439
6945	2140	345125964301696
6913	2165	345125965183592
6905	2177	345125966040809
6928	2186	345125966871568
6976	2189	345125967671465
7000	2193	345125968491405
6977	2203	345125969299106
6906	2191	345125970260319
6823	2162	345125971286598
6832	2150	345125972122363
6855	2157	345125972959596
6814	2167	345125973670376
6760	2179	345125974499082
6729	2191	345125975326917
6723	2190	345125976139962
6704	2187	345125976967377
6685	2172	345125977700980
6637	2164	345125978518467
6580	2160	345125979322233
6504	2168	345125980262230
6453	2170	345125981177592
6436	2159	345125981920679
6438	2142	345125982725579
6449	2124	345125983526423
6462	2106	345125984346047
6463	2081	345125985183992
6478	2062	345125986040911
6462	2042	345125986869475
6466	2025	345125987671855
6510	2021	345125988490404
6546	2002	345125989300566
6566	2000	345125990201763
6541	2006	345125991112315
6507	2011	345125991949661
6538	2019	345125992737111
6550	2019	345125993556146
6558	2016	345125994170018
6587	2004	345125994995131
6612	1982	345125995819039
6607	1969	345125996452455
6577	1963	345125997237574
6514	1953	345125998085465
6460	1949	345125998912880
6398	1947	345125999716934
6365	1938	345126000531008
6395	1925	345126001346695
6473	1923	345126002156057
6525	1927	345126003011162
6554	1928	345126003810140
6531	1920	345126004615902
6479	1903	345126005460155
6428	1894	345126006268449
6363	1898	345126006951502
6321	1899	345126007773082
6288	1886	345126008581195
6285	1869	345126009387546
6299	1848	345126010153310
6324	1842	345126011062362
6341	1842	345126011874858
6339	1831	345126012598605
6337	1815	345126013247220
6306	1798	345126014104731
6261	1791	345126015103848
6231	1785	345126015952855
6220	1788	345126016754359
6209	1794	345126017574451
6205	1793	345126018191275
6171	1800	345126019014851
6119	1812	345126019842301
6074	1814	345126020662298
6026	1810	345126021456307
5977	1797	345126022276172
5947	1794	345126023108043
5939	1820	345126023938024
5950	1868	345126024762447
5986	1912	345126025584897
6033	1942	345126026390224
6084	1947	345126027268721
6116	1948	345126028102810
6138	1939	345126028935227
6137	1919	345126029758405
6105	1905	345126030585487
6065	1903	345126031395323
6023	1920	345126032193820
5964	1955	345126033025185
5919	1996	345126033684421
5928	2027	345126034503098
5956	2055	345126035272517
6014	2069	345126036065037
6085	2055	345126036916115
6144	2032	345126037718905
6173	2019	345126038504847
6177	2018	345126039301517
6151	2021	345126040187248
6157	2048	345126041094096
6166	2088	345126041955409
6141	2140	345126042747189
6088	2180	345126043552980
6059	2185	345126044356353
6001	2180	345126045278331
5937	2170	345126046116553
5892	2155	345126046967953
5843	2168	345126047772212
5800	2222	345126048563902
5781	2280	345126049328398
5770	2322	345126050267211
5783	2356	345126051156311
5820	2394	345126052010621
5833	2393	345126052692328
5818	2373	345126053497164
5785	2363	345126054295364
5728	2351	345126055245920
5677	2350	345126056079093
5626	2364	345126056928358
5573	2389	345126057733996
5541	2406	345126058541283
5523	2417	345126059359376
5489	2419	345126060277638
5468	2409	345126061034639
5448	2392	345126061879113
5416	2367	345126062685110
5364	2341	345126063487107
5315	2322	345126064307382
5262	2333	345126065158725
5215	2351	345126065996445
5167	2381	345126066792826
5127	2397	345126067582049
5114	2393	345126068388156
5102	2370	345126069210433
5122	2350	345126070043873
5153	2330	345126070967364
5154	2311	345126071771478
5141	2302	345126072576470
5109	2303	345126073391128
5082	2313	345126074211143
5100	2325	345126075178889
5094	2321	345126076016830
5092	2301	345126076839987
5065	2282	345126077646029
5019	2282	345126078448524
4979	2281	345126079231868
4972	2279	345126080070831
4994	2256	345126080910470
5047	2231	345126081738569
5112	2213	345126082543967
5167	2206	345126083364893
5212	2201	345126083952736
5239	2191	345126084753988
5239	2177	345126085575391
5228	2156	345126086406571
5306	2137	345126087211448
5422	2118	345126088050349
5575	2099	345126088813080
5681	2089	345126089617911
5765	2078	345126090455999
5811	2063	345126091283634
5805	2073	345126092114832
5758	2087	345126092949706
5755	2085	345126093746390
5812	2073	345126094336506
5901	2053	345126095277619
6047	2049	345126096139218
6226	2045	345126096978592
6382	2033	345126097789991
6549	2017	345126098568926
6678	2013	345126099372181
6723	2010	345126100287462
6669	1990	345126101196665
6648	1968	345126102032792
6662	1948	345126102696353
6678	1930	345126103513569
6705	1909	345126104323125
6824	1883	345126105392517
6970	1864	345126106224315
7108	1850	345126107073538
7213	1840	345126107902411
7269	1829	345126108701038
7289	1819	345126109506090
7262	1822	345126110328450
7187	1838	345126111336580
7167	1847	345126112160071
7192	1839	345126112996928
7252	1820	345126113817222
7330	1819	345126114622001
7428	1833	345126115458467
7514	1865	345126116284248
7591	1905	345126117118324
7640	1939	345126117947866
7659	1935	345126118725874
7621	1926	345126119324872
7570	1925	345126120284140
7571	1909	345126121126431
7594	1895	345126121937580
7648	1889	345126122739954
7725	1904	345126123536990
7817	1927	345126124340395
7877	1950	345126125283934
7864	1958	345126126144934
7802	1942	345126126983886
7732	1921	345126127698970
7682	1903	345126128518245
7634	1893	345126129323282
7549	1886	345126130069647
7490	1885	345126130995268
7431	1909	345126131799415
7387	1937	345126132605718
7339	1971	345126133405059
7279	1993	345126134212489
7225	1995	345126135048098
7175	1975	345126135918175
7111	1969	345126136723721
7051	1971	345126137529736
7019	1971	345126138328144
6994	1984	345126139274763
6983	2002	345126140198235
6970	2019	345126141117261
6974	2026	345126141954770
6988	2019	345126142753572
7009	2015	345126143581763
7026	2016	345126144328042
6987	2006	345126145167764
6997	1987	345126146050509
7165	1979	345126146856834
7371	1997	345126147666197
7496	2042	345126148488227
7566	2101	345126149292429
7585	2137	345126150247539
7609	2132	345126151162845
7585	2111	345126152004258
7526	2102	345126152704164
7516	2098	345126153526272
7543	2095	345126154335770
7622	2088	345126155286841
7716	2068	345126156142120
7783	2045	345126156826162
7831	2033	345126157628547
7926	2034	345126158427969
8022	2029	345126159229218
8070	2012	345126160061588
8065	2005	345126160919488
8026	1988	345126161729070
7982	1985	345126162536367
7918	1995	345126163330973
7871	1999	345126164156134
7869	1981	345126164993408
7890	1975	345126165828204
7914	1970	345126166634449
7926	1971	345126167327832
7910	1972	345126168165193
7866	1960	345126168998598
7810	1942	345126169775754
7735	1927	345126170602254
7659	1914	345126171412035
7611	1908	345126172218886
7672	1915	345126173069198
7716	1925	345126173896431
7714	1935	345126174701722
7680	1927	345126175516233
7654	1908	345126176321302
7591	1897	345126177153966
7580	1892	345126178005930
7580	1878	345126178808594
7563	1863	345126179618819
7512	1854	345126180454756
7459	1835	345126181263441
7411	1817	345126182097445
7358	1810	345126182959183
7311	1805	345126183763816
7262	1805	345126184567801
7217	1820	345126185328659
7151	1860	345126186082430
7091	1885	345126186912297
7016	1873	345126187736185
6947	1855	345126188512478
6880	1841	345126189316108
6810	1852	345126190210868
6773	1864	345126191119743
6770	1871	345126191952912
6782	1858	345126192574839
6792	1851	345126193384785
6801	1842	345126194193432
6765	1840	345126195158934
6699	1836	345126196064310
6666	1827	345126196894812
6670	1811	345126197677745
6691	1803	345126198488026
6716	1801	345126199290932
6729	1799	345126200240452
6821	1800	345126201072797
6928	1796	345126201906511
6952	1808	345126202704193
6922	1823	345126203506046
6855	1828	345126204305802
6815	1814	345126205348704
6839	1802	345126206174442
6896	1827	345126206805746
6947	1859	345126207624055
7033	1899	345126208422296
7159	1897	345126209221881
7301	1875	345126210074445
7400	1855	345126210999669
7449	1842	345126211814695
7448	1846	345126212611095
7416	1850	345126213416979
7362	1834	345126214221796
7465	1831	345126215206476
7652	1844	345126216042886
7852	1871	345126216848651
8023	1891	345126217614723
8124	1901	345126218425015
8148	1904	345126219230723
8148	1901	345126220077552
8149	1887	345126220992999
8148	1866	345126221701153
8149	1858	345126222521979
8149	1841	345126223359682
8148	1823	345126224165403
8149	1808	345126224908481
8149	1810	345126225588654
8149	1828	345126226391548
8148	1853	345126227205136
8149	1867	345126228035561
8149	1885	345126228838076
8148	1905	345126229635971
8149	1911	345126230452103
8148	1897	345126231258285
8149	1883	345126232107724
8149	1878	345126232939186
8146	1882	345126233742751
8113	1901	345126234537352
8138	1930	345126235351988
8148	1957	345126236092025
8148	1971	345126236941576
8148	1974	345126237747631
8144	1960	345126238522667
8092	1943	345126239320550
8026	1933	345126240209620
7981	1934	345126241049007
7926	1941	345126241900366
7858	1947	345126242703990
7787	1953	345126243510325
7727	1949	345126244309911
7701	1921	345126245229472
7665	1904	345126246064045
7600	1888	345126246911741
7551	1870	345126247713075
7532	1865	345126248515355
7506	1869	345126249274266
7466	1876	345126250110659
7406	1891	345126251130370
7338	1919	345126252013980
7292	1930	345126252682798
7263	1920	345126253460967
7223	1902	345126254231413
7185	1877	345126255173627
7121	1864	345126255985097
7072	1862	345126256779822
7023	1879	345126257556684
7020	1906	345126258335628
7061	1931	345126258937354
7102	1941	345126259710284
7161	1948	345126260500310
7187	1948	345126261079581
7173	1943	345126261883433
7107	1925	345126262662350
7040	1914	345126263428695
6990	1904	345126264231358
6992	1924	345126265068678
7020	1960	345126265926928
7061	1989	345126266730378
7082	1996	345126267342474
7041	1990	345126268171023
6984	1972	345126269003642
6944	1958	345126269775770
6924	1962	345126270564855
6892	1968	345126271380446
6845	1965	345126272191155
6805	1954	345126273042953
6775	1950	345126273847898
6727	1950	345126274652403
6670	1958	345126275468527
6626	1966	345126276273544
6603	1974	345126277104741
6620	1984	345126277966212
6703	1983	345126278762484
6752	1970	345126279576587
6769	1953	345126280410217
6787	1937	345126281228187
6779	1940	345126281839015
6765	1965	345126282659802
6721	2014	345126283463493
6669	2079	345126284263789
6633	2138	345126285091839
6599	2164	345126285939787
6540	2158	345126286745949
6501	2135	345126287609124
6506	2121	345126288414284
6535	2114	345126289190620
6593	2115	345126290028375
6598	2139	345126290850424
6581	2157	345126291658956
6563	2175	345126292477077
6551	2186	345126293283424
6548	2173	345126294115198
6569	2160	345126294936032
6590	2160	345126295762076
6614	2162	345126296465305
6628	2158	345126297225125
6631	2158	345126298059903
6627	2159	345126298858636
6611	2148	345126299679199
6561	2128	345126300500578
6557	2123	345126301308640
6572	2112	345126302156315
6560	2095	345126303044105
6555	2090	345126303852793
6569	2098	345126304677144
6723	2102	345126305496583
6974	2084	345126306302708
7183	2066	345126307251959
7261	2064	345126308087923
7242	2058	345126308921064
7184	2039	345126309738460
7187	2022	345126310569992
7235	2001	345126311382899
7312	1983	345126312207180
7420	1982	345126313042113
7532	1996	345126313848190
7657	2006	345126314646063
7772	2010	345126315483724
7869	2011	345126316288798
7955	2001	345126317144506
8006	1981	345126317980431
8022	1959	345126318780995
7992	1945	345126319354643
8010	1946	345126320312349
8147	1952	345126321240847
8148	1942	345126322070435
8148	1930	345126322875637
8148	1918	345126323473475
8148	1910	345126324290179
8148	1894	345126325248594
8148	1881	345126326060679
8148	1874	345126326909390
8148	1867	345126327711982
8148	1884	345126328513366
8148	1902	345126329273402
8148	1914	345126330109869
8148	1919	345126331024825
8149	1917	345126331844292
8148	1904	345126332647859
8149	1893	345126333454328
8148	1898	345126334251581
8148	1915	345126335322121
8148	1921	345126335973320
8148	1929	345126336732792
8148	1933	345126337539796
8148	1919	345126338352469
8148	1900	345126339185428
8148	1885	345126340024026
8148	1879	345126340847570
8148	1879	345126341654226
8148	1867	345126342245719
8148	1852	345126343079121
8148	1839	345126343930428
8148	1826	345126344597077
8148	1808	345126345418057
8148	1790	345126346223013
8148	1780	345126347054703
8148	1776	345126347857613
8148	1759	345126348472671
8148	1747	345126349278885
8148	1739	345126350107408
8148	1752	345126351027151
8149	1784	345126351830969
8148	1794	345126352639004
8148	1784	345126353401391
8148	1777	345126354206081
8149	1784	345126355037850
8148	1800	345126355878645
8148	1809	345126356682383
8148	1816	345126357453763
8148	1814	345126358254639
8148	1797	345126358973738
8148	1787	345126359775611
8148	1785	345126360610799
8148	1778	345126361421963
8148	1773	345126362234297
8148	1769	345126363098682
8148	1771	345126363983378
8148	1787	345126364790453
8149	1798	345126365631714
8148	1806	345126366439307
8148	1819	345126367226247
8148	1827	345126368072197
8149	1821	345126368874388
8148	1807	345126369677740
8148	1810	345126370517847
8148	1826	345126371331665
8149	1851	345126372164736
8148	1882	345126373052448
8148	1901	345126373860523
8149	1919	345126374665854
8148	1939	345126375503705
8148	1961	345126376310595
8148	1962	345126377144937
8148	1954	345126377977292
8148	1968	345126378781172
8148	1995	345126379584198
8148	2024	345126380417654
8148	2046	345126381239500
8148	2047	345126382136825
8148	2033	345126382991027
8148	2017	345126383793285
8148	2009	345126384596557
8148	1995	345126385361877
8148	1973	345126385976971
8149	1959	345126386779531
8149	1943	345126387601403
8148	1934	345126388402494
8148	1919	345126389206838
8148	1907	345126390044223
8148	1906	345126390865175
8148	1911	345126391673676
8148	1917	345126392494651
8148	1932	345126393306118
8148	1939	345126394140514
8148	1922	345126394988499
8148	1906	345126395810293
8148	1903	345126396474640
8149	1891	345126397297981
8149	1880	345126398142719
8148	1874	345126398940121
8149	1872	345126399738229
8148	1882	345126400558928
8149	1915	345126401369547
8149	1951	345126402245041
8148	1964	345126403076379
8148	1949	345126403880466
8149	1942	345126404679861
8148	1928	345126405493822
8148	1914	345126406305000
8148	1898	345126407082868
8148	1909	345126407919134
8148	1937	345126408725338
8148	1971	345126409578278
8148	1994	345126410400095
8148	1994	345126411287329
8149	1986	345126412124754
8148	1968	345126412954269
8148	1958	345126413733208
8148	1964	345126414586337
8148	1978	345126415232077
8148	1990	345126416066796
8148	2001	345126416827072
8149	2013	345126417697291
8148	2024	345126418502048
8148	2048	345126419338615
8149	2054	345126420353384
8149	2035	345126421276626
8148	2033	345126422120568
8148	2043	345126422951974
8148	2068	345126423735299
8148	2102	345126424533726
8149	2129	345126425346378
8148	2158	345126426150904
8149	2172	345126426943292
8148	2176	345126427702255
8149	2162	345126428453584
8148	2166	345126429246177
8148	2195	345126430051657
8148	2256	345126430843087
8149	2296	345126431620053
8148	2299	345126432394814
8125	2284	345126433174333
8094	2264	345126433962974
8064	2247	345126434703005
8023	2227	345126435496449
7958	2215	345126436267498
7913	2218	345126437067299
7895	2219	345126437839842
7864	2220	345126438638126
7837	2218	345126439411968
7820	2204	345126440241824
7812	2181	345126441002421
7814	2182	345126441807135
7796	2208	345126442611215
7739	2241	345126443436395
7670	2253	345126444244870
7590	2235	345126445083050
7511	2218	345126445978892
7451	2240	345126446783623
7392	2276	345126447588334
7417	2310	345126448411307
7508	2324	345126449216864
7578	2332	345126450047723
7618	2352	345126450877732
7619	2379	345126451690194
7560	2407	345126452508939
7485	2416	345126453334749
7437	2395	345126454171687
7423	2369	345126455005118
7401	2358	345126455850977
7382	2371	345126456658249
7355	2401	345126457462747
7328	2450	345126458255010
7317	2507	345126458986961
7323	2563	345126459793198
7354	2637	345126460635197
7371	2683	345126461414715
7330	2699	345126462218697
7261	2680	345126463044679
7218	2684	345126463849143
7193	2727	345126464654353
7203	2786	345126465479514
7231	2828	345126466290554
7277	2867	345126467121514
7347	2897	345126467935342
7403	2928	345126468707027
7427	2934	345126469331592
7424	2909	345126470275610
7392	2899	345126471140435
7351	2905	345126471921933
7309	2916	345126472709651
7265	2918	345126473474290
7227	2896	345126474250205
7163	2888	345126475190892
7166	2881	345126476012765
7213	2867	345126476783734
7284	2845	345126477585910
7344	2816	345126478391726
7348	2786	345126479196355
7320	2755	345126480207345
7312	2738	345126481023427
7309	2724	345126481831768
7317	2707	345126482651282
7324	2678	345126483453459
7304	2659	345126484252889
7243	2645	345126485104155
7179	2643	345126485954891
7116	2646	345126486765690
7057	2644	345126487562313
7007	2623	345126488362866
6948	2629	345126489197946
6897	2654	345126490054013
6886	2689	345126490876676
6890	2722	345126491652476
6894	2744	345126492236886
6901	2749	345126493066790
6936	2727	345126493686541
7000	2702	345126494388099
7061	2678	345126495324604
7077	2649	345126496158526
7050	2620	345126496924067
6989	2602	345126497728286
6932	2591	345126498490948
6884	2590	345126499311473
6854	2617	345126500264017
6866	2689	345126501138062
6931	2786	345126501923504
6970	2869	345126502617732
6963	2889	345126503420871
6952	2862	345126504241243
6933	2855	345126505305765
6908	2868	345126506156813
6865	2886	345126506866806
6801	2914	345126507669703
6737	2966	345126508474342
6674	3035	345126509294302
6624	3084	345126510129332
6606	3087	345126510990984
6605	3072	345126511821780
6590	3067	345126512627007
6556	3044	345126513417988
6508	3031	345126514165501
6448	3026	345126515003346
6390	3030	345126515827750
6355	3042	345126516633040
6303	3073	345126517244592
6259	3107	345126518079132
6205	3139	345126518949344
6165	3137	345126519752472
6143	3111	345126520573872
6152	3081	345126521371924
6133	3055	345126522206120
6086	3028	345126523042990
6054	3007	345126523866834
6034	3003	345126524671353
5979	3011	345126525491644
5918	3028	345126526311703
5875	3028	345126527149154
5852	3010	345126527980186
5831	2982	345126528803311
5829	2951	345126529607989
5840	2921	345126530430560
5843	2884	345126531371038
5805	2857	345126532203980
5763	2846	345126533040273
5739	2844	345126533867143
5689	2848	345126534644366
5688	2860	345126535466362
5804	2870	345126536273862
6054	2862	345126537105329
6257	2833	345126537932099
6386	2812	345126538755243
6445	2791	345126539562137
6430	2766	345126540379431
6371	2734	345126541264716
6366	2703	345126542097824
6397	2686	345126542899831
6458	2688	345126543695199
6539	2688	345126544374244
6560	2687	345126545212795
6569	2685	345126546068483
6570	2678	345126546870716
6551	2659	345126547675203
6556	2644	345126548473071
6572	2637	345126549273315
6528	2633	345126550230571
6481	2629	345126551147744
6442	2626	345126551981529
6381	2629	345126552620735
6332	2627	345126553438056
6308	2620	345126554242182
6319	2614	345126555079331
6352	2617	345126555894446
6402	2599	345126556699381
6429	2604	345126557506952
6444	2629	345126558311318
6433	2659	345126559139057
6382	2687	345126559968524
6327	2706	345126560810966
6378	2711	345126561622509
6515	2695	345126562429074
6648	2668	345126563122007
6727	2649	345126563948289
6758	2636	345126564710630
6720	2620	345126565552117
6656	2610	345126566361693
6619	2608	345126567192175
6603	2610	345126568044212
6588	2621	345126568850397
6554	2628	345126569656028
6494	2615	345126570496698
6439	2599	345126571305846
6382	2573	345126572137113
6368	2560	345126572967091
6370	2567	345126573776380
6356	2583	345126574579821
6335	2600	345126575416088
6308	2596	345126576220855
6282	2576	345126577054216
6248	2551	345126577628980
6216	2532	345126578433562
6186	2510	345126579235180
6180	2483	345126580085073
6179	2465	345126580905168
6174	2468	345126581722600
6124	2478	345126582530967
6122	2495	345126583339436
6200	2512	345126584173326
6307	2520	345126585029073
6345	2516	345126585856798
6385	2501	345126586665367
6404	2477	345126587486440
6385	2463	345126588126606
6355	2447	345126588957701
6301	2417	345126589780116
6268	2404	345126590567811
6254	2418	345126591376204
6218	2451	345126592204138
6163	2471	345126593039099
6161	2484	345126593841970
6198	2486	345126594664946
6237	2468	345126595483880
6250	2471	345126596292921
6256	2491	345126597138361
6313	2518	345126597966401
6338	2525	345126598764581
6317	2504	345126599593086
6266	2481	345126600413325
6212	2460	345126601257516
6207	2463	345126602103618
6228	2469	345126602905908
6261	2476	345126603708278
6327	2475	345126604531280
6365	2451	345126605460656
6319	2447	345126606270345
6311	2465	345126606875685
6327	2488	345126607674401
6318	2521	345126608474606
6260	2558	345126609295885
6238	2582	345126610134618
6255	2594	345126611001056
6229	2602	345126611831455
6184	2597	345126612635591
6131	2577	345126613439933
6101	2591	345126614265141
6078	2634	345126615101494
6058	2677	345126615948948
6016	2697	345126616707588
5962	2699	345126617509524
5905	2678	345126618311839
5868	2647	345126619137885
5910	2620	345126619971625
5987	2589	345126620797245
6097	2563	345126621383700
6176	2543	345126622217761
6215	2529	345126623103906
6180	2509	345126623951724
6128	2493	345126624758466
6101	2502	345126625577330
6131	2521	345126626378509
6213	2534	345126627208492
6316	2537	345126628037145
6436	2531	345126628857386
6544	2510	345126629662784
6624	2486	345126630472826
6703	2477	345126631275199
6790	2502	345126631878504
6834	2531	345126632678647
6872	2570	345126633503414
6845	2593	345126634306017
6797	2596	345126635100183
6830	2580	345126635942402
6940	2555	345126636746118
7094	2546	345126637555718
7233	2549	345126638380503
7349	2575	345126639211985
7432	2607	345126640050787
7513	2632	345126640811632
7528	2624	345126641620263
7464	2607	345126642254179
7422	2609	345126643228681
7419	2608	345126644067316
7422	2596	345126644868510
7410	2572	345126645688739
7389	2555	345126646383469
7369	2550	345126647215026
7357	2544	345126648065813
7345	2527	345126648751968
7308	2505	345126649561952
7241	2490	345126650376078
7162	2494	345126651253488
7084	2515	345126652093039
7010	2544	345126652953218
6941	2565	345126653758880
6884	2579	345126654564569
6841	2572	345126655398321
6780	2551	345126656220185
6718	2544	345126656883370
6668	2559	345126657706504
6611	2591	345126658511616
6557	2622	345126659306357
6516	2655	345126660133579
6550	2687	345126661006266
6652	2702	345126661815479
6783	2699	345126662639386
6897	2683	345126663439845
6915	2668	345126664242235
6863	2661	345126665015685
6845	2682	345126665841938
6880	2724	345126666647628
6958	2742	345126667261016
7020	2747	345126668092627
7117	2773	345126668896271
7236	2798	345126669712220
7344	2798	345126670539683
7438	2784	345126671351321
7520	2767	345126672197603
7584	2778	345126673029740
7618	2808	345126673824675
7576	2837	345126674646650
7529	2864	345126675469015
7515	2886	345126676276463
7501	2905	345126677107739
7548	2900	345126677912474
7668	2884	345126678720570
7810	2900	345126679542629
7954	2926	345126680363679
8046	2971	345126681203732
8073	2997	345126681886758
8066	3006	345126682693589
8026	3001	345126683499952
7976	2986	345126684316665
7969	2954	345126685151493
7993	2924	345126685999894
8010	2911	345126686817464
8020	2905	345126687621138
8037	2907	345126688425704
8060	2924	345126689248948
8079	2943	345126690084071
8083	2964	345126690904420
8076	2980	345126691707015
8063	2982	345126692510934
8012	2986	345126693317387
7936	2996	345126694178972
7857	2987	345126695013007
7792	2958	345126695835908
7752	2965	345126696634173
7716	2991	345126697440051
7678	3016	345126698245222
7648	3053	345126699208740
7652	3103	345126700050241
7648	3145	345126700868929
7627	3131	345126701695597
7613	3118	345126702502155
7625	3108	345126703305889
7662	3078	345126704146672
7667	3053	345126705041598
7617	3027	345126705687775
7571	3005	345126706486825
7548	2983	345126707289358
7568	2963	345126708118404
7622	2960	345126708888715
7679	2979	345126709696821
7738	2991	345126710518451
7701	2964	345126711325819
7636	2937	345126712158017
7593	2911	345126712984836
7554	2913	345126713691123
7507	2904	345126714495775
7428	2873	345126715139969
7386	2865	345126715990702
7334	2860	345126716795295
7280	2854	345126717601360
7286	2850	345126718398661
7313	2865	345126719220954
7344	2874	345126720062037
7359	2852	345126720906043
7333	2836	345126721685871
7278	2817	345126722492161
7231	2792	345126723291039
7170	2764	345126724120494
7119	2737	345126724922221
7101	2715	345126725785558
7108	2711	345126726592705
7150	2688	345126727395708
7183	2669	345126728225695
7204	2662	345126729032100
7240	2655	345126729768434
7270	2655	345126730605846
7297	2643	345126731412427
7292	2617	345126732200951
7238	2586	345126733056598
7262	2558	345126733864797
7337	2535	345126734670849
7382	2515	345126735472163
7371	2495	345126736275549
7317	2474	345126737113029
7251	2470	345126738019188
7203	2483	345126738824542
7163	2488	345126739628881
7130	2471	345126740443579
7169	2460	345126741282643
7159	2465	345126742114333
7097	2462	345126742957483
7031	2465	345126743763706
6962	2470	345126744568777
6896	2462	345126745410346
6834	2448	345126746228676
6781	2435	345126747062967
6792	2414	345126747862610
6783	2392	345126748516343
6738	2380	345126749320133
6690	2380	345126750299550
6687	2399	345126751195017
6726	2420	345126752031223
6798	2432	345126752641485
6835	2420	345126753423130
6865	2403	345126754172406
6881	2391	345126755135997
6892	2379	345126755993027
6905	2376	345126756767311
6895	2395	345126757588782
6842	2413	345126758391989
6787	2416	345126759219622
6814	2407	345126760077496
6928	2384	345126760901115
7070	2370	345126761716914
7171	2363	345126762520423
7214	2343	345126763322085
7211	2325	345126764153851
7155	2301	345126765012388
7100	2282	345126765837569
7060	2272	345126766643671
7040	2291	345126767271197
7048	2336	345126768102836
7053	2405	345126768892704
7041	2441	345126769703371
7047	2433	345126770529399
7074	2414	345126771332876
7085	2416	345126772185031
7076	2410	345126773015198
7046	2392	345126773804011
6996	2385	345126774627496
6927	2390	345126775454333
6874	2400	345126776262034
6838	2416	345126777023184
6811	2425	345126777647122
6784	2433	345126778449722
6742	2436	345126779273056
6740	2419	345126780103230
6763	2397	345126780920579
6780	2394	345126781726627
6762	2401	345126782529071
6702	2395	345126783333047
6648	2375	345126784187730
6642	2362	345126785027603
6634	2363	345126785847483
6612	2363	345126786667266
6562	2373	345126787471591
6508	2371	345126788276624
6485	2349	345126789127981
6471	2349	345126789930751
6458	2361	345126790718822
6468	2379	345126791488653
6480	2396	345126792240833
6449	2409	345126793042459
6421	2405	345126793637067
6423	2389	345126794242640
6437	2377	345126795046580
6450	2362	345126795946456
6435	2361	345126796718648
6382	2360	345126797494439
6336	2354	345126798289174
6276	2346	345126799090150
6222	2341	345126799865364
6162	2342	345126800495033
6113	2332	345126801273781
6066	2320	345126802079997
6046	2314	345126802867802
6004	2314	345126803644211
5952	2299	345126804424379
5896	2295	345126805451985
5841	2299	345126806263092
5789	2299	345126807095737
5756	2310	345126807907630
5724	2329	345126808713080
5712	2353	345126809520817
5708	2382	345126810374589
5681	2403	345126811421195
5717	2392	345126812245951
5778	2375	345126813021382
5813	2373	345126813827107
5790	2389	345126814632086
5760	2430	345126815469398
5786	2487	345126816286480
5822	2524	345126817090150
5823	2529	345126817909975
5815	2526	345126818683170
5818	2528	345126819275682
5828	2518	345126820128856
5838	2493	345126821124103
5847	2485	345126821963633
5841	2491	345126822765146
5823	2512	345126823529672
5784	2542	345126824339849
5807	2563	345126825198960
5851	2556	345126826007478
5892	2537	345126826820189
5904	2518	345126827619079
5910	2494	345126828423973
5903	2470	345126829240516
5861	2442	345126830092001
5802	2430	345126830916485
5765	2435	345126831695953
5739	2446	345126832485487
5729	2450	345126833255813
5713	2450	345126833872594
5693	2442	345126834664260
5667	2421	345126835405322
5651	2416	345126835993377
5642	2419	345126836756016
5635	2425	345126837527727
5629	2417	345126838306414
5599	2397	345126839124957
5560	2394	345126839896507
5511	2398	345126840685217
5475	2397	345126841491555
5461	2383	345126842276851
5457	2368	345126843110060
5435	2378	345126843928724
5393	2396	345126844711216
5347	2411	345126845535246
5323	2409	345126846336196
5299	2389	345126847170685
5283	2392	345126848002221
5275	2409	345126848769368
5243	2424	345126849575720
5223	2430	345126850395293
5251	2453	345126851293605
5244	2469	345126852128316
5209	2448	345126852931284
5161	2421	345126853755421
5133	2399	345126854558455
5108	2385	345126855377981
5071	2385	345126856207143
5037	2388	345126857019302
4989	2399	345126857824671
4994	2409	345126858646292
5060	2409	345126859449187
5123	2401	345126860371720
5116	2385	345126861347249
5075	2370	345126862186809
5069	2351	345126863015707
5088	2328	345126863834554
5138	2310	345126864638990
5172	2287	345126865386478
5174	2295	345126866246923
5211	2360	345126867203504
5267	2458	345126868043174
5314	2536	345126868844635
5349	2550	345126869649282
5324	2546	345126870475205
5316	2589	345126871338676
5339	2633	345126872176283
5373	2670	345126872997234
5415	2710	345126873798210
5493	2747	345126874580338
5577	2761	345126875381605
5631	2759	345126876227877
5627	2752	345126877062359
5573	2730	345126877657193
5548	2734	345126878483408
5536	2757	345126879288091
5535	2794	345126880122288
5527	2815	345126880881309
5547	2820	345126881688889
5577	2803	345126882496463
5598	2779	345126883322331
5633	2760	345126884161025
5660	2732	345126885000716
5675	2707	345126885816940
5658	2696	345126886623857
5633	2704	345126887426682
5583	2706	345126888036061
5563	2687	345126888839040
5549	2676	345126889641567
5585	2685	345126890474583
5667	2703	345126891301919
5777	2719	345126892135484
5861	2722	345126892980113
5874	2710	345126893788476
5847	2696	345126894593938
5796	2683	345126895430921
5772	2661	345126896248448
5766	2639	345126897081270
5799	2626	345126897881114
5861	2618	345126898530608
5916	2631	345126899338742
6003	2671	345126900312027
6052	2708	345126901206121
6068	2717	345126902057831
6057	2697	345126902662912
6018	2688	345126903470034
5971	2685	345126904275921
5913	2683	345126905393107
5947	2671	345126906232936
6062	2652	345126907065664
6213	2639	345126907882029
6344	2639	345126908685393
6466	2644	345126909496106
6559	2645	345126910393282
6580	2624	345126911334567
6524	2601	345126912171326
6512	2588	345126912932851
6535	2579	345126913740005
6604	2575	345126914543258
6687	2579	345126915160046
6736	2589	345126915968925
6798	2600	345126916773339
6820	2606	345126917578589
6785	2607	345126918380725
6746	2607	345126919210402
6700	2597	345126920066514
6638	2573	345126920896036
6646	2586	345126921684886
6685	2609	345126922512698
6754	2630	345126923375507
6825	2641	345126924212651
6836	2647	345126925226079
6771	2631	345126926072066
6744	2647	345126926876524
6771	2678	345126927660927
6825	2694	345126928413661
6893	2675	345126929243465
6983	2644	345126930045046
7077	2615	345126930843355
7163	2590	345126931653097
7235	2576	345126932472576
7248	2575	345126933270902
7206	2569	345126933922082
7148	2559	345126934741712
7091	2544	345126935504933
7052	2520	345126936309567
7028	2496	345126937068920
7032	2473	345126937870936
7073	2451	345126938678264
7113	2444	345126939507160
7148	2430	345126940167815
7178	2415	345126941072340
7210	2403	345126941874846
7220	2390	345126942677091
7216	2373	345126943478221
7183	2358	345126944290805
7119	2337	345126945127640
7052	2330	345126945950040
6988	2331	345126946759094
6945	2319	345126947571460
6940	2294	345126948377420
6918	2273	345126949226013
6857	2259	345126950065924
6784	2248	345126950884024
6712	2237	345126951716910
6645	2215	345126952522375
6586	2203	345126953326382
6530	2186	345126954154311
6468	2180	345126954985306
6403	2193	345126955811329
6350	2221	345126956632506
6291	2216	345126957446534
6230	2210	345126958256109
6167	2224	345126958914378
6116	2237	345126959717743
6070	2260	345126960536629
6033	2298	345126961360849
5982	2329	345126962193596
5946	2330	345126963020779
5939	2317	345126963837525
5944	2297	345126964640247
5965	2306	345126965427485
6019	2337	345126966256787
6101	2369	345126967092407
6161	2390	345126967898691
6186	2406	345126968660410
6191	2402	345126969293802
6157	2383	345126970126557
6097	2371	345126971068284
6056	2366	345126971848967
6041	2374	345126972651415
6022	2389	345126973412734
6031	2405	345126974199728
6074	2420	345126975017687
6195	2428	345126975838594
6364	2419	345126976646119
6485	2397	345126977453953
6535	2372	345126978266803
6503	2360	345126979260625
6477	2372	345126980275114
6441	2385	345126981200336
6384	2389	345126982046734
6332	2412	345126982855960
6308	2464	345126983654932
6327	2516	345126984454944
6375	2516	345126985286119
6446	2490	345126986169331
6509	2471	345126987002248
6581	2471	345126987805263
6636	2482	345126988604083
6656	2501	345126989407084
6645	2526	345126990169161
6605	2545	345126991084135
6554	2590	345126991891548
6564	2620	345126992691650
6578	2632	345126993367831
6566	2622	345126994207175
6548	2602	345126995018667
6575	2610	345126995836207
6588	2631	345126996645014
6570	2650	345126997446545
6530	2656	345126998266767
6477	2663	345126999104235
6463	2680	345126999904298
6461	2700	345127000516938
6469	2715	345127001328070
6515	2731	345127002167144
6570	2724	345127003009327
6584	2696	345127003811364
6556	2682	345127004616029
6521	2673	345127005431001
6472	2690	345127006236375
6427	2728	345127007068214
6376	2780	345127007903141
6323	2815	345127008709716
6264	2822	345127009515287
6214	2816	345127010403089
6159	2796	345127011345140
6108	2779	345127012182852
6052	2757	345127013032958
6000	2738	345127013838045
5959	2718	345127014614507
5962	2700	345127015439840
5956	2713	345127016262296
5972	2747	345127017094459
6036	2770	345127017936007
6121	2776	345127018744427
6166	2787	345127019546634
6197	2796	345127020382971
6210	2774	345127021313479
6179	2759	345127022154844
6130	2747	345127022949640
6101	2732	345127023746961
6076	2724	345127024550618
6077	2733	345127025401604
6075	2745	345127026236855
6094	2754	345127027071115
6134	2766	345127027669642
6170	2769	345127028471356
6208	2758	345127029179865
6217	2741	345127030030771
6204	2714	345127030827826
6191	2711	345127031612037
6142	2738	345127032431618
6111	2776	345127033262193
6094	2800	345127033900698
6086	2805	345127034725463
6043	2805	345127035537605
5985	2793	345127036343580
5923	2765	345127037170724
5877	2744	345127038002057
5817	2733	345127038806106
5762	2723	345127039627514
5715	2722	345127040452719
5680	2734	345127041322266
5650	2756	345127042074514
5637	2771	345127042879676
5614	2781	345127043684899
5601	2773	345127044303797
5607	2754	345127045143631
5610	2750	345127045992448
5592	2773	345127046795637
5564	2801	345127047597329
5519	2820	345127048411369
5499	2829	345127049173809
5505	2832	345127050175897
5530	2828	345127051087780
5551	2812	345127051916972
5580	2811	345127052672830
5546	2805	345127053474934
5491	2795	345127054278664
5457	2787	345127055119238
5443	2764	345127056043971
5413	2749	345127056798638
5395	2755	345127057590200
5393	2773	345127058392730
5399	2794	345127059216196
5431	2828	345127060046400
5462	2895	345127060865545
5455	2966	345127061688214
5406	2996	345127062495232
5390	2974	345127063301202
5374	2964	345127064150363
5377	2968	345127064958230
5404	2994	345127065780999
5458	3044	345127066579357
5520	3081	345127067174238
5537	3091	345127068002452
5503	3088	345127068826122
5504	3064	345127069629440
5505	3035	345127070452276
5467	3011	345127071356481
5411	2987	345127072188882
5361	2974	345127073021365
5312	2981	345127073849356
5284	2974	345127074652263
5255	2948	345127075439571
5222	2925	345127076261671
5174	2900	345127077104213
5148	2900	345127077696048
5126	2900	345127078518948
5089	2891	345127079322135
5040	2882	345127080263029
5006	2863	345127081023520
4964	2845	345127081805980
4930	2851	345127082615705
4896	2892	345127083436265
4867	2934	345127084263674
4838	2961	345127085104057
4802	2986	345127085922425
4785	3008	345127086730597
4794	3009	345127087535224
4809	2986	345127088364693
4815	2981	345127089206395
4827	2984	345127090039275
4812	3003	345127090871847
4782	3033	345127091700121
4749	3062	345127092500982
4758	3082	345127093323181
4796	3090	345127094162877
4829	3075	345127094961688
4846	3047	345127095776484
4880	3042	345127096427908
4901	3042	345127097261760
4925	3050	345127098117353
4966	3050	345127098918727
4971	3054	345127099725067
4934	3057	345127100539826
4891	3055	345127101350451
4884	3058	345127102182937
4918	3053	345127103028550
4983	3026	345127103833368
5076	3006	345127104638601
5176	2980	345127105398863
5264	2957	345127106235825
5352	2956	345127107069524
5421	2972	345127107904563
5446	2998	345127108710270
5410	3019	345127109515667
5357	3035	345127110406951
5409	3014	345127111428053
5567	2987	345127112252629
5734	2983	345127113065025
5865	2990	345127113868822
5948	2993	345127114676805
5962	2991	345127115492310
5918	3001	345127116297094
5889	3021	345127117129288
5868	3035	345127117949173
5859	3041	345127118758304
5868	3027	345127119346960
5876	3003	345127120199129
5908	2977	345127121040247
5958	2966	345127121854201
6012	2964	345127122655197
6057	2968	345127123458992
6059	2979	345127124271528
6027	2997	345127125128225
5975	3012	345127125951656
5923	3015	345127126757332
5917	3014	345127127558141
6003	3009	345127128361801
6116	2992	345127129195149
6195	2963	345127130045369
6206	2954	345127130869987
6156	2966	345127131674661
6111	2988	345127132494261
6085	3027	345127133299429
6094	3069	345127134113771
6123	3093	345127134936332
6173	3104	345127135758718
6221	3105	345127136562903
6271	3079	345127137322627
6324	3066	345127138085887
6355	3085	345127138886919
6347	3117	345127139713914
6299	3152	345127140532378
6311	3177	345127141337251
6372	3161	345127142187389
6449	3139	345127143016825
6504	3122	345127143824007
6565	3107	345127144641467
6644	3084	345127145459317
6702	3050	345127146278918
6722	3013	345127147242619
6670	2981	345127148096039
6626	2958	345127148897248
6604	2934	345127149722984
6581	2916	345127150545386
6547	2892	345127151353352
6550	2867	345127152184780
6589	2865	345127152829715
6617	2864	345127153634027
6646	2850	345127154456985
6653	2816	345127155400220
6601	2785	345127156237056
6543	2758	345127157066795
6482	2752	345127157822345
6419	2765	345127158629803
6354	2789	345127159448848
6279	2807	345127160403266
6214	2798	345127161206934
6156	2775	345127162053762
6100	2753	345127162854679
6073	2730	345127163657869
6058	2704	345127164456303
6005	2688	345127165403225
5966	2702	345127166241715
5953	2700	345127167097182
5943	2691	345127167903714
5947	2691	345127168706553
5963	2707	345127169324299
5972	2726	345127170165965
5955	2728	345127171097201
5902	2699	345127171923987
5848	2687	345127172729548
5818	2677	345127173449681
5813	2663	345127174281893
5863	2655	345127175291365
5923	2645	345127176137488
5953	2636	345127176961362
5941	2630	345127177588756
5912	2624	345127178398261
5860	2613	345127179224713
5804	2590	345127180056827
5753	2558	345127180878831
5736	2538	345127181708191
5741	2527	345127182515996
5767	2515	345127183320939
5779	2516	345127184147873
5728	2532	345127184948502
5707	2542	345127185774018
5705	2535	345127186595255
5720	2516	345127187399043
5707	2489	345127188065151
5686	2474	345127188889474
5673	2462	345127189692938
5707	2453	345127190508957
5769	2440	345127191333608
5783	2420	345127192169487
5745	2425	345127192971386
5719	2447	345127193796078
5758	2449	345127194597582
5824	2447	345127195414733
5908	2440	345127196244818
6000	2428	345127197076508
6112	2408	345127197879129
6222	2405	345127198698979
6285	2405	345127199499955
6259	2417	345127200411633
6268	2429	345127201173332
6287	2441	345127201979527
6280	2465	345127202569802
6264	2476	345127203391838
6228	2467	345127204225349
6207	2446	345127205121550
6221	2422	345127205944337
6230	2401	345127206750445
6249	2405	345127207555560
6264	2431	345127208376877
6244	2461	345127209057936
6225	2475	345127209860892
6177	2483	345127210679389
6170	2478	345127211494765
6196	2473	345127212302402
6248	2464	345127213067890
6298	2442	345127213871921
6332	2440	345127214676770
6335	2456	345127215496127
6322	2474	345127216300840
6315	2489	345127217132947
6285	2503	345127217949780
6255	2508	345127218751548
6223	2493	345127219340587
6175	2475	345127220191829
6158	2459	345127221114418
6251	2459	345127221930350
6372	2473	345127222730980
6466	2491	345127223454872
6541	2498	345127224282416
6601	2477	345127225137220
6605	2458	345127225956049
6547	2446	345127226759018
6514	2426	345127227557940
6509	2408	345127228359442
6546	2401	345127229185111
6590	2416	345127230038768
6625	2426	345127230860928
6623	2427	345127231665161
6580	2427	345127232480987
6555	2441	345127233283377
6486	2458	345127234117583
6421	2455	345127234939885
6360	2434	345127235751585
6305	2420	345127236557607
6250	2400	345127237358597
6196	2373	345127238072734
6149	2353	345127238876773
6117	2335	345127239699517
6107	2315	345127240506002
6112	2309	345127241346863
6135	2321	345127242176785
6153	2348	345127242980497
6178	2362	345127243781763
6220	2356	345127244601039
6202	2346	345127245411829
6154	2344	345127246243222
6169	2349	345127247090899
6193	2334	345127247898703
6245	2318	345127248688223
6355	2311	345127249514047
6499	2306	345127250420239
6548	2301	345127251306753
6509	2286	345127252136377
6440	2263	345127252935922
6393	2243	345127253686845
6364	2219	345127254510735
6333	2206	345127255422317
6341	2218	345127256254904
6377	2247	345127257105562
6416	2274	345127257908234
6456	2274	345127258712149
6495	2254	345127259547973
6558	2246	345127260435670
6609	2247	345127261329628
6622	2258	345127262192918
6590	2269	345127263029566
6528	2272	345127263801928
6487	2260	345127264535340
6443	2243	345127265389914
6405	2219	345127266193872
6394	2208	345127267012937
6399	2213	345127267782902
6417	2224	345127268554999
6463	2231	345127269292702
6522	2233	345127270273668
6545	2218	345127271158945
6560	2221	345127271950990
6553	2231	345127272725933
6520	2244	345127273417878
6477	2263	345127274232631
6414	2280	345127275032637
6354	2277	345127275819149
6293	2256	345127276611998
6232	2234	345127277418475
6199	2213	345127278248589
6163	2192	345127279100483
6103	2186	345127279698827
6061	2184	345127280518871
6048	2163	345127281277651
6047	2161	345127282162724
6046	2209	345127282970663
6064	2286	345127283792248
6062	2349	345127284594960
6044	2357	345127285428882
6035	2343	345127286256287
6030	2360	345127287088953
6034	2386	345127287891526
6014	2394	345127288651711
6009	2390	345127289457552
5985	2388	345127290411894
6052	2392	345127291318429
6146	2397	345127292156711
6212	2406	345127292960145
6230	2407	345127293760395
6192	2409	345127294349616
6146	2412	345127295184543
6115	2399	345127296052974
6112	2383	345127296855913
6095	2396	345127297662790
6082	2413	345127298451911
6048	2425	345127299283713
6022	2456	345127300122060
6035	2506	345127300958219
6072	2532	345127301688768
6113	2532	345127302495593
6146	2510	345127303312181
6153	2487	345127304146454
6136	2465	345127304946003
6114	2464	345127305788206
6089	2475	345127306595195
6031	2499	345127307399313
5992	2529	345127308157387
5955	2553	345127308824605
5923	2580	345127309643175
5883	2619	345127310479283
5836	2649	345127311393497
5820	2653	345127312241037
5800	2632	345127313004376
5821	2629	345127313808179
5854	2684	345127314610137
5876	2769	345127315549384
5879	2794	345127316356830
5906	2784	345127317189563
5957	2771	345127318033493
5985	2772	345127318837450
6032	2763	345127319643906
6096	2752	345127320485557
6117	2761	345127321329211
6082	2761	345127322171283
6044	2737	345127322968748
6050	2724	345127323778940
6077	2739	345127324585608
6139	2770	345127325417891
6208	2811	345127326237567
6296	2839	345127327066284
6396	2849	345127327861354
6504	2845	345127328668954
6603	2819	345127329471864
6616	2800	345127330422551
6568	2813	345127331320776
6501	2819	345127332125526
6446	2802	345127332948731
6400	2774	345127333687181
6393	2747	345127334490517
6388	2716	345127335420832
6370	2685	345127336253179
6335	2678	345127337082506
6279	2704	345127337905587
6245	2744	345127338718212
6213	2752	345127339521600
6160	2741	345127340432605
6112	2781	345127341322557
6054	2819	345127342167051
6022	2840	345127342980925
6010	2853	345127343782616
5988	2854	345127344586480
5987	2832	345127345417802
5991	2811	345127346165097
6037	2800	345127346964158
6095	2794	345127347762897
6125	2792	345127348456500
6137	2797	345127349289288
6139	2802	345127350150508
6133	2801	345127350965186
6122	2789	345127351771830
6085	2767	345127352573503
6061	2752	345127353382862
6000	2755	345127354218598
5954	2762	345127355073538
5935	2755	345127355893599
5934	2732	345127356697763
5911	2730	345127357518371
5863	2765	345127358322871
5810	2811	345127359151464
5796	2842	345127359975809
5852	2862	345127360798187
5960	2873	345127361632757
6091	2853	345127362435283
6246	2832	345127363264840
6377	2812	345127364096812
6487	2787	345127364919659
6564	2782	345127365744389
6607	2781	345127366553591
6638	2778	345127367209236
6628	2777	345127368042153
6575	2765	345127368844097
6536	2756	345127369637759
6572	2744	345127370461669
6709	2712	345127371334240
6846	2696	345127372186833
6979	2681	345127372993527
7080	2677	345127373796546
7151	2677	345127374619581
7172	2676	345127375438485
7146	2674	345127376273329
7087	2672	345127377033485
7029	2655	345127377840131
7004	2628	345127378644593
7001	2612	345127379469757
6980	2607	345127380424552
6961	2627	345127381318706
6984	2663	345127382228200
7019	2679	345127383059357
7046	2670	345127383860869
7024	2642	345127384620568
6978	2618	345127385445674
6926	2588	345127386266953
6857	2557	345127387131729
6789	2532	345127387934377
6742	2505	345127388739493
6707	2485	345127389542494
6681	2481	345127390439272
6696	2503	345127391329957
6736	2528	345127392182154
6789	2555	345127392983389
6839	2572	345127393792187
6860	2569	345127394592394
6826	2547	345127395447584
6776	2544	345127396278861
6756	2560	345127397126040
6751	2579	345127397930092
6751	2603	345127398732628
6747	2627	345127399557197
6754	2655	345127400445643
6727	2653	345127401286899
6673	2625	345127402144283
6626	2603	345127402953043
6587	2578	345127403757849
6551	2551	345127404581497
6497	2536	345127405497995
6436	2521	345127406311902
6380	2512	345127407135951
6340	2510	345127407939100
6297	2518	345127408747470
6243	2522	345127409567964
6177	2520	345127410450711
6111	2533	345127411397427
6050	2558	345127412248916
6001	2566	345127412960742
5972	2552	345127413765157
5938	2533	345127414565842
5903	2529	345127415452196
5848	2552	345127416284191
5788	2595	345127417141400
5746	2641	345127417953831
5699	2668	345127418758147
5657	2676	345127419556094
5615	2662	345127420486222
5552	2630	345127421346650
5530	2607	345127422195463
5502	2584	345127422996855
5447	2566	345127423801249
5408	2564	345127424630154
5385	2589	345127425430015
5357	2630	345127426238079
5338	2667	345127427179719
5335	2698	345127427989506
5327	2695	345127428799119
5317	2686	345127429625644
5320	2721	345127430448073
5350	2781	345127431337819
5394	2818	345127432169961
5404	2832	345127432975245
5373	2835	345127433781683
5345	2825	345127434594907
5344	2811	345127435451061
5353	2795	345127436345083
5400	2771	345127437191292
5415	2743	345127437969262
5401	2729	345127438780371
5355	2729	345127439578406
5301	2748	345127440460360
5243	2782	345127441354942
5197	2812	345127442207325
5163	2832	345127443036613
5141	2836	345127443838967
5126	2828	345127444636131
5099	2815	345127445428895
5063	2793	345127446161896
5044	2773	345127446976121
5060	2766	345127447774037
5061	2769	345127448467979
5044	2786	345127449308184
4995	2804	345127450152728
4953	2807	345127450970549
4929	2800	345127451744678
4895	2792	345127452561087
4853	2782	345127453376397
4805	2773	345127454228347
4757	2753	345127455058639
4715	2720	345127455885147
4681	2692	345127456684080
4643	2674	345127457489277
4623	2673	345127458311027
4646	2685	345127459203810
4677	2692	345127460007281
4697	2698	345127460830969
4685	2697	345127461655002
4665	2678	345127462460599
4650	2660	345127463287260
4631	2654	345127464146162
4625	2648	345127464951808
4626	2638	345127465772694
4633	2635	345127466575262
4629	2631	345127467236361
4618	2623	345127468062881
4606	2617	345127468885899
4581	2615	345127469659906
4551	2592	345127470480576
4559	2587	345127471348531
4633	2582	345127472187221
4759	2567	345127472991834
4875	2539	345127473817043
4972	2520	345127474621726
5061	2505	345127475449792
5135	2487	345127476297590
5155	2465	345127477131131
5169	2444	345127477933287
5244	2426	345127478756168
5303	2409	345127479561033
5283	2379	345127480454355
5259	2354	345127481338842
5305	2326	345127482175105
5395	2309	345127482975354
5522	2303	345127483813818
5656	2299	345127484620933
5801	2298	345127485453367
5947	2302	345127486298182
6061	2290	345127487134564
6151	2266	345127487935691
6222	2244	345127488754397
6283	2241	345127489559851
6296	2258	345127490441873
6238	2281	345127491355360
6221	2285	345127492188112
6250	2286	345127492986446
6326	2290	345127493686715
6405	2290	345127494497552
6507	2272	345127495445320
6567	2250	345127496295079
6638	2239	345127497133595
6721	2234	345127497938607
6746	2248	345127498733123
6708	2267	345127499538059
6651	2286	345127500445784
6642	2302	345127501350549
6659	2318	345127502188688
6676	2330	345127502994289
6677	2324	345127503816413
6680	2304	345127504620820
6683	2299	345127505528314
6667	2307	345127506350138
6628	2330	345127507179477
6581	2359	345127507982231
6608	2369	345127508806176
6673	2362	345127509610712
6750	2342	345127510460376
6840	2322	345127511393449
6885	2315	345127512224864
6875	2304	345127512972824
6830	2289	345127513789763
6761	2268	345127514594635
6696	2251	345127515461553
6679	2237	345127516317452
6719	2234	345127517151874
6792	2239	345127517944881
6885	2241	345127518741723
6989	2227	345127519539957
7107	2210	345127520448005
7228	2200	345127521352148
7281	2204	345127522187742
7249	2216	345127522991079
7272	2232	345127523785599
7358	2241	345127524586633
7455	2249	345127525442653
7522	2257	345127526291165
7573	2241	345127527091438
7629	2230	345127527892036
7660	2222	345127528716460
7644	2212	345127529520801
7582	2221	345127530445938
7543	2266	345127531327619
7570	2304	345127532160370
7601	2311	345127532962706
7649	2307	345127533787878
7693	2290	345127534591932
7756	2273	345127535459901
7795	2253	345127536240516
7797	2252	345127537075907
7769	2253	345127537877656
7713	2249	345127538695887
7645	2248	345127539514904
7574	2251	345127540452718
7551	2265	345127541311021
7560	2286	345127542155311
7603	2306	345127542959673
7635	2321	345127543760565
7649	2338	345127544560844
7645	2335	345127545462397
7584	2326	345127546319354
7508	2343	345127547149626
7451	2362	345127547940740
7443	2396	345127548702383
7471	2445	345127549508442
7506	2486	345127550434324
7484	2498	345127551342060
7441	2489	345127552175870
7377	2465	345127552972928
7333	2449	345127553686534
7290	2430	345127554492874
7250	2399	345127555450615
7212	2386	345127556300406
7174	2379	345127556966416
7158	2381	345127557770222
7132	2392	345127558600003
7132	2413	345127559400441
7165	2430	345127560231741
7197	2431	345127561145181
7182	2414	345127561924851
7121	2393	345127562729167
7059	2372	345127563544693
7010	2354	345127564354484
6983	2335	345127565104095
6959	2333	345127565937816
6946	2351	345127566741926
6935	2394	345127567530522
6921	2435	345127568351918
6904	2455	345127569216904
6875	2452	345127570029224
6815	2439	345127570848128
6747	2424	345127571675326
6683	2403	345127572480619
6661	2392	345127573348023
6655	2401	345127574214992
6639	2427	345127575021678
6608	2459	345127575837002
6569	2489	345127576643441
6537	2509	345127577451445
6483	2530	345127578297361
6431	2538	345127579133980
6445	2520	345127579935923
6517	2495	345127580775724
6565	2483	345127581586535
6599	2496	345127582393880
6680	2518	345127583218315
6781	2544	345127583857122
6841	2559	345127584660064
6841	2572	345127585500348
6786	2586	345127586311636
6781	2591	345127587151793
6778	2581	345127587953283
6775	2556	345127588768905
6812	2537	345127589575255
6880	2531	345127590472400
6876	2530	345127591360481
6830	2526	345127592106798
6774	2524	345127592925811
6725	2516	345127593735228
6726	2499	345127594537720
6762	2469	345127595571339
6752	2463	345127596356334
6705	2460	345127597189910
6648	2449	345127597990161
6647	2447	345127598784115
6687	2449	345127599590703
6769	2455	345127600466954
6850	2448	345127601360295
6960	2426	345127602193085
7082	2402	345127602990807
7205	2390	345127603795824
7328	2405	345127604597186
7421	2445	345127605361674
7449	2475	345127606195866
7435	2504	345127606998335
7385	2520	345127607818175
7411	2527	345127608619828
7544	2533	345127609423013
7720	2528	345127610252142
7869	2516	345127611183301
8000	2497	345127612010307
8051	2477	345127612829699
8082	2498	345127613649288
8070	2543	345127614456970
7998	2586	345127615412166
7927	2603	345127616248243
7892	2627	345127617079520
7859	2657	345127617687057
7827	2667	345127618495245
7855	2665	345127619236992
7867	2649	345127620087220
7806	2623	345127620906964
7771	2596	345127621721482
7773	2578	345127622519490
7791	2577	345127623333073
7791	2589	345127624170758
7781	2616	345127624989268
7779	2642	345127625686706
7768	2643	345127626497321
7773	2629	345127627319787
7788	2617	345127628158394
7806	2592	345127628963593
7816	2573	345127629614490
7821	2564	345127630466283
7818	2555	345127631357962
7787	2536	345127632190715
7736	2512	345127632986145
7666	2495	345127633687134
7620	2482	345127634510537
7577	2463	345127635457874
7550	2445	345127636280825
7536	2427	345127637134883
7502	2420	345127637934302
7467	2416	345127638751969
7442	2395	345127639555027
7448	2377	345127640460481
7513	2380	345127641352932
7549	2382	345127642115208
7562	2378	345127642917162
7568	2365	345127643722076
7562	2343	345127644520841
7524	2319	345127645354537
7509	2308	345127646189441
7510	2296	345127647002316
7490	2285	345127647805023
7418	2280	345127648610292
7370	2284	345127649416615
7381	2304	345127650232118
7408	2316	345127651250969
7452	2312	345127652093668
7516	2301	345127652858004
7583	2290	345127653662719
7627	2278	345127654484629
7594	2256	345127655441538
7546	2241	345127656273992
7494	2245	345127657111069
7527	2269	345127657927573
7582	2297	345127658729069
7631	2310	345127659543680
7648	2319	345127660458856
7627	2332	345127661356953
7592	2347	345127662213557
7565	2346	345127662989383
7548	2325	345127663791755
7488	2311	345127664586593
7456	2334	345127665478332
7428	2401	345127666312895
7401	2466	345127667084756
7373	2504	345127667886677
7377	2513	345127668689224
7408	2502	345127669449862
7440	2476	345127670453455
7474	2446	345127671365476
7449	2437	345127672212299
7381	2447	345127673013075
7321	2469	345127673795065
7316	2499	345127674616819
7376	2525	345127675480440
7418	2542	345127676308904
7395	2534	345127677070136
7332	2513	345127677847609
7301	2486	345127678652814
7305	2459	345127679476311
7315	2445	345127680427787
7318	2440	345127681321634
7317	2441	345127682181224
7312	2457	345127682988567
7278	2477	345127683795544
7205	2485	345127684614754
7125	2479	345127685443100
7067	2467	345127686275339
7041	2446	345127687131177
7051	2416	345127687941801
7084	2395	345127688746771
7103	2368	345127689563798
7087	2340	345127690469837
7052	2331	345127691363170
6986	2327	345127692117496
6939	2326	345127692919679
6930	2312	345127693730704
6962	2290	345127694550628
7016	2264	345127695471226
7077	2255	345127696305667
7130	2232	345127697156386
7181	2207	345127697957977
7201	2202	345127698759642
7181	2213	345127699581495
7113	2228	345127700479278
7100	2213	345127701318582
7135	2206	345127702220942
7249	2217	345127703023783
7395	2221	345127703827992
7549	2210	345127704620467
7705	2193	345127705529355
7799	2181	345127706346087
7834	2163	345127707292372
7813	2145	345127708131677
7736	2135	345127708870007
7683	2119	345127709690333
7671	2100	345127710512798
7708	2085	345127711432852
7779	2068	345127712265167
7885	2048	345127712997102
7981	2032	345127713804342
8068	2021	345127714605228
8144	2000	345127715488110
8149	1989	345127716321974
8149	2003	345127717123328
8149	2013	345127717927868
8149	2006	345127718733973
8149	1986	345127719537983
8149	1964	345127720469923
8149	1942	345127721391419
8148	1924	345127722241135
8149	1903	345127723040843
8149	1889	345127723807216
8149	1883	345127724646466
8149	1884	345127725474811
8149	1889	345127726595205
8149	1910	345127727622344
8149	1929	345127728432296
8149	1926	345127729263952
8149	1913	345127730086435
8149	1924	345127730907521
8148	1946	345127731715228
8148	1961	345127732536362
8125	1978	345127733348245
8089	1999	345127734188141
8050	2015	345127735010803
7986	2028	345127735833344
7914	2022	345127736583020
7840	2008	345127737398751
7777	2003	345127738249608
7722	2005	345127739076956
7695	2012	345127739901034
7670	2022	345127740722563
7649	2034	345127741530257
7637	2046	345127742112734
7626	2049	345127742912227
7612	2057	345127743716046
7585	2058	345127744539028
7508	2039	345127745472949
7471	2015	345127746308191
7481	1994	345127747155766
7491	1983	345127747959000
7521	1993	345127748616362
7531	2003	345127749437917
7498	2014	345127750273373
7468	2027	345127751190620
7438	2045	345127751989871
7392	2051	345127752626074
7342	2042	345127753430296
7282	2022	345127754281795
7249	2008	345127755081857
7245	1990	345127755902710
7276	1984	345127756663784
7303	1969	345127757469228
7322	1967	345127758299311
7327	1979	345127759149441
7276	1999	345127759950808
7204	2031	345127760769698
7139	2077	345127761597658
7068	2109	345127762401286
7002	2109	345127763364231
6982	2093	345127764227320
6962	2093	345127765032946
6938	2103	345127765860276
6905	2124	345127766680779
6926	2154	345127767481395
7062	2184	345127768321623
7172	2212	345127769174875
7204	2222	345127769975725
7161	2203	345127770795529
7111	2197	345127771617701
7099	2196	345127772421070
7127	2193	345127773250516
7165	2186	345127774091555
7215	2174	345127774894338
7291	2157	345127775506379
7344	2158	345127776356247
7413	2149	345127777189312
7451	2145	345127777991531
7425	2161	345127778803608
7356	2170	345127779589411
7322	2164	345127780490382
7293	2143	345127781352500
7277	2127	345127782177957
7255	2120	345127782980151
7226	2118	345127783753761
7244	2116	345127784556965
7284	2112	345127785496409
7312	2102	345127786340815
7297	2079	345127787226844
7236	2058	345127788006424
7184	2037	345127788767280
7170	2017	345127789573265
7184	1991	345127790482987
7210	1971	345127791404574
7248	1950	345127792127683
7265	1939	345127792928646
7269	1942	345127793728048
7221	1945	345127794528886
7157	1935	345127795477746
7101	1915	345127796254369
7080	1896	345127797084422
7070	1876	345127797886001
7042	1861	345127798703389
7008	1864	345127799507185
6976	1879	345127800457979
6967	1897	345127801370495
6915	1917	345127802203861
6866	1928	345127803003747
6827	1914	345127803828944
6770	1918	345127804630844
6712	1933	345127805470700
6690	1945	345127806292022
6682	1955	345127807122537
6656	1959	345127807913059
6647	1953	345127808739136
6644	1950	345127809547970
6647	1961	345127810473961
6595	1971	345127811408274
6526	1968	345127812255369
6485	1952	345127813003804
6427	1933	345127813822968
6367	1919	345127814582659
6310	1925	345127815488893
6257	1946	345127816310936
6216	1968	345127817114867
6172	1981	345127817920390
6145	1979	345127818738252
6145	1968	345127819560757
6190	1952	345127820491447
6200	1929	345127821259243
6208	1916	345127822084523
6199	1907	345127822886749
6161	1907	345127823688748
6118	1907	345127824493387
6057	1902	345127825451855
5998	1885	345127826301753
5971	1881	345127827137882
5960	1871	345127827861274
5949	1864	345127828669101
5956	1862	345127829473486
5916	1852	345127830434185
5852	1832	345127831346046
5821	1815	345127832187239
5819	1810	345127832992099
5787	1824	345127833762802
5743	1865	345127834566170
5716	1927	345127835487829
5692	1942	345127836314694
5659	1929	345127837144627
5634	1923	345127837952266
5611	1927	345127838780029
5616	1936	345127839582667
5582	1963	345127840488634
5528	2003	345127841405300
5515	2046	345127842136398
5505	2075	345127842938833
5508	2086	345127843737481
5528	2071	345127844541476
5520	2055	345127845387941
5507	2043	345127846248174
5464	2024	345127847049920
5410	2001	345127847851970
5364	1986	345127848652028
5309	1972	345127849430443
5278	1955	345127850239758
5241	1933	345127851176473
5191	1925	345127851988029
5157	1931	345127852758333
5147	1932	345127853579411
5131	1938	345127854377316
5148	1957	345127855222813
5230	1974	345127856143133
5284	1984	345127856733127
5314	1975	345127857538133
5323	1984	345127858355302
5288	2017	345127859184452
5246	2041	345127859983806
5245	2043	345127860828270
5252	2027	345127861652145
5267	2008	345127862458233
5298	1986	345127863301856
5312	1968	345127864132314
5324	1953	345127864935258
5327	1946	345127865769457
5335	1949	345127866572855
5355	1955	345127867162661
5352	1957	345127867984286
5326	1954	345127868787673
5305	1941	345127869586429
5351	1924	345127870494284
5401	1910	345127871257490
5426	1901	345127872088899
5428	1889	345127872912754
5413	1873	345127873720655
5428	1860	345127874527346
5448	1851	345127875514816
5430	1849	345127876352693
5387	1840	345127877187393
5385	1833	345127878006968
5416	1840	345127878812031
5486	1843	345127879620787
5560	1834	345127880507903
5629	1818	345127881398609
5684	1824	345127882224188
5727	1833	345127883045688
5711	1829	345127883770332
5708	1820	345127884575730
5786	1850	345127885335299
5849	1887	345127886174796
5911	1909	345127886976241
5965	1900	345127887807420
6055	1912	345127888610225
6176	1921	345127889407009
6270	1924	345127890265202
6331	1924	345127891183732
6321	1923	345127891991678
6266	1907	345127892751734
6238	1894	345127893556445
6226	1879	345127894276340
6197	1867	345127895130543
6222	1859	345127895950023
6301	1844	345127896755580
6408	1834	345127897575712
6540	1840	345127898376731
6642	1835	345127899210594
6693	1818	345127900033603
6738	1799	345127900759817
6786	1791	345127901565686
6855	1791	345127902398961
6845	1790	345127903233317
6866	1779	345127904034399
6972	1765	345127904843489
7085	1752	345127905665932
7169	1733	345127906473955
7233	1720	345127907218182
7274	1719	345127907993308
7273	1728	345127908764828
7234	1734	345127909591267
7161	1731	345127910501543
7106	1721	345127911443184
7083	1718	345127912296069
7059	1724	345127913014589
7018	1736	345127913816489
6988	1739	345127914635068
6916	1735	345127915511493
6887	1730	345127916347122
6890	1727	345127917141967
6904	1781	345127917953284
6937	1880	345127918759411
6947	1955	345127919555893
6921	1984	345127920539964
6904	1968	345127921256938
6882	1969	345127922153908
6870	1965	345127922959037
6872	1972	345127923760760
6863	2010	345127924580920
6867	2068	345127925421147
6842	2109	345127926256963
6787	2134	345127927120936
6759	2137	345127927923595
6780	2131	345127928745107
6790	2113	345127929571634
6799	2094	345127930499930
6783	2096	345127931505964
6766	2096	345127932340355
6750	2101	345127933176325
6729	2113	345127933780515
6760	2121	345127934599245
6846	2134	345127935485121
6907	2150	345127936314540
6974	2165	345127937168741
7057	2165	345127937973938
7157	2162	345127938777830
7200	2156	345127939575820
7150	2138	345127940487754
7087	2126	345127941327772
7090	2122	345127942117102
7112	2123	345127942889794
7161	2130	345127943667040
7217	2147	345127944255501
7246	2164	345127945029643
7302	2184	345127945824961
7397	2185	345127946620274
7503	2168	345127947396735
7607	2169	345127948197994
7692	2173	345127948985630
7740	2180	345127949636700
7728	2173	345127950480637
7649	2150	345127951361900
7613	2129	345127952166735
7650	2113	345127952919124
7735	2093	345127953709748
7827	2085	345127954485111
7928	2091	345127955408851
7949	2101	345127956270011
7920	2091	345127957019553
7883	2080	345127957824433
7823	2087	345127958589159
7757	2100	345127959391829
7690	2125	345127960228096
7654	2156	345127960893443
7645	2180	345127961710848
7650	2202	345127962517170
7650	2213	345127963359607
7646	2206	345127964192223
7647	2189	345127964995600
7637	2207	345127965829155
7640	2239	345127966632809
7641	2280	345127967435798
7581	2338	345127968280247
7533	2380	345127969079453
7529	2383	345127969882838
7538	2363	345127970717383
7588	2346	345127971620091
7651	2328	345127972425450
7666	2313	345127973276147
7669	2335	345127974108624
7672	2383	345127974915047
7700	2423	345127975526870
7751	2436	345127976358422
7811	2432	345127977195290
7801	2414	345127978018702
7746	2399	345127978824853
7763	2395	345127979628540
7800	2392	345127980515107
7873	2379	345127981355878
7950	2368	345127982190491
8020	2361	345127983017338
8082	2359	345127983754522
8116	2353	345127984534702
8148	2339	345127985475048
8148	2326	345127986281792
8149	2312	345127987192136
8149	2286	345127987875495
8149	2278	345127988652728
8148	2275	345127989427397
8101	2274	345127990406807
8099	2283	345127991310193
8143	2297	345127992144276
8149	2300	345127992960278
8149	2293	345127993702266
8148	2279	345127994508404
8149	2256	345127995452319
8149	2247	345127996279074
8149	2258	345127997110272
8149	2257	345127997929440
8148	2251	345127998734886
8148	2245	345127999536402
8149	2227	345128000405058
8148	2203	345128001312666
8149	2195	345128002152673
8148	2219	345128002950720
8141	2234	345128003754663
8110	2231	345128004548331
8041	2212	345128005588809
7983	2200	345128006397433
7916	2206	345128007227906
7837	2221	345128008051238
7763	2239	345128008777822
7716	2247	345128009582911
7637	2251	345128010510276
7550	2243	345128011449595
7489	2227	345128012286247
7453	2205	345128013137098
7414	2200	345128013942793
7416	2205	345128014749677
7431	2208	345128015584831
7444	2200	345128016388220
7440	2182	345128017156764
7386	2160	345128017977103
7406	2147	345128018780817
7470	2132	345128019577672
7524	2110	345128020509123
7524	2101	345128021277732
7512	2110	345128022111130
7473	2134	345128022928195
7424	2139	345128023728807
7401	2124	345128024532201
7349	2105	345128025407505
7291	2097	345128026248882
7223	2096	345128027052132
7155	2109	345128027870302
7117	2141	345128028678510
7134	2172	345128029484010
7164	2189	345128030452431
7116	2187	345128031351433
7117	2168	345128032179665
7126	2185	345128033007663
7089	2237	345128033785948
7032	2284	345128034598382
6968	2302	345128035521735
6920	2280	345128036529096
6891	2262	345128037369374
6897	2237	345128038157790
6914	2220	345128038961124
6942	2207	345128039766359
6961	2193	345128040602015
6973	2176	345128041439589
6975	2183	345128042160781
6959	2197	345128042977858
6949	2204	345128043797304
6912	2198	345128044597713
6947	2175	345128045456827
7016	2156	345128046285973
7107	2142	345128047114590
7186	2136	345128047932969
7222	2138	345128048735889
7220	2142	345128049537419
7145	2149	345128050408996
7079	2151	345128051311519
7028	2143	345128052148433
7007	2127	345128052950283
6985	2107	345128053755976
6955	2095	345128054562391
6889	2088	345128055512727
6820	2076	345128056347033
6766	2058	345128057180147
6706	2045	345128058005027
6682	2044	345128058784963
6626	2030	345128059591161
6572	2015	345128060470094
6551	2018	345128061147455
6541	2018	345128061952196
6527	2003	345128062777092
6534	1983	345128063583130
6506	1970	345128064386124
6446	1959	345128065257544
6417	1952	345128066078118
6438	1950	345128066883648
6454	1949	345128067707796
6461	1948	345128068515809
6482	1936	345128069160986
6495	1923	345128069983460
6502	1909	345128070806027
6507	1897	345128071617820
6497	1890	345128072446976
6504	1878	345128073283504
6486	1860	345128074119704
6451	1844	345128074937356
6401	1856	345128075629955
6384	1878	345128076425635
6412	1896	345128077282610
6471	1909	345128078083053
6520	1906	345128078886979
6539	1890	345128079663602
6579	1872	345128080517888
6605	1858	345128081411321
6587	1852	345128082269857
6531	1860	345128083072094
6477	1878	345128083786495
6431	1897	345128084603236
6417	1932	345128085440355
6403	1960	345128086276097
6372	1969	345128087120471
6361	1954	345128087910229
6337	1953	345128088726882
6328	1961	345128089546882
6318	1966	345128090503990
6249	1964	345128091394907
6187	1965	345128092163047
6144	1980	345128092964226
6109	1997	345128093772356
6100	2000	345128094588727
6168	1985	345128095462913
6240	1970	345128096287908
6264	1964	345128097180248
6211	1973	345128097995404
6195	1985	345128098773655
6222	1998	345128099618239
6293	2028	345128100414293
6332	2054	345128101317882
6379	2075	345128102084050
6413	2065	345128102888833
6423	2065	345128103693017
6431	2088	345128104519145
6412	2137	345128105588141
6391	2180	345128106410722
6347	2205	345128107258943
6299	2205	345128108063298
6295	2192	345128108793372
6334	2172	345128109617935
6406	2156	345128110529172
6579	2152	345128111549454
6731	2149	345128112396810
6803	2156	345128113234564
6810	2165	345128114045200
6752	2163	345128114865534
6688	2149	345128115684677
6659	2141	345128116493719
6678	2149	345128117169280
6686	2161	345128117972791
6692	2166	345128118776994
6720	2170	345128119594273
6769	2153	345128120518536
6826	2133	345128121291558
6849	2128	345128122133716
6873	2138	345128122948406
6879	2158	345128123756889
6856	2188	345128124581097
6817	2231	345128125417489
6771	2251	345128126256807
6781	2253	345128127054291
6871	2254	345128127856567
7076	2257	345128128663194
7253	2245	345128129485144
7364	2227	345128130324157
7394	2235	345128131241742
7364	2268	345128132040463
7297	2300	345128132844979
7229	2331	345128133655695
7157	2364	345128134474415
7130	2381	345128135411761
7183	2385	345128136209697
7269	2383	345128137034484
7400	2379	345128137842404
7546	2367	345128138644925
7688	2345	345128139462682
7818	2322	345128140300998
7883	2323	345128141139931
7890	2335	345128141969424
7826	2354	345128142775814
7777	2379	345128143579921
7737	2401	345128144464613
7717	2414	345128145287866
7674	2409	345128146137930
7630	2385	345128146957774
7574	2364	345128147761925
7520	2340	345128148419980
7504	2320	345128149271644
7496	2294	345128150069049
7528	2276	345128150863067
7594	2270	345128151698215
7641	2271	345128152506035
7701	2278	345128153348344
7761	2278	345128154202119
7816	2259	345128155003396
7852	2258	345128155842297
7829	2253	345128156648695
7769	2249	345128157455702
7704	2239	345128158290486
7643	2218	345128159140129
7638	2209	345128159944054
7696	2195	345128160764960
7776	2175	345128161586753
7884	2151	345128162395644
7999	2130	345128163230618
8074	2106	345128164056929
8131	2086	345128164861510
8148	2070	345128165686279
8148	2083	345128166507103
8148	2094	345128167171071
8129	2093	345128167950662
8078	2090	345128168755080
8034	2086	345128169560982
8003	2076	345128170570873
8008	2061	345128171297732
8063	2045	345128172130485
8146	2031	345128172933502
8148	2034	345128173754417
8149	2047	345128174559193
8149	2058	345128175424142
8149	2064	345128176279074
8148	2067	345128177084900
8149	2060	345128177888850
8144	2049	345128178713070
8107	2031	345128179521560
8059	2011	345128180477402
8002	2008	345128181237851
7981	2009	345128182033703
7973	2011	345128182843604
8002	2025	345128183670317
8022	2026	345128184474872
8044	2014	345128185308976
8053	1991	345128186179216
8044	1971	345128186982842
8030	1953	345128187789170
8000	1938	345128188607354
7976	1921	345128189415153
7973	1912	345128190053194
7944	1910	345128190894304
7889	1919	345128191703963
7828	1938	345128192476933
7806	1942	345128193325867
7821	1924	345128194163241
7889	1903	345128194964899
7951	1886	345128195766082
7998	1881	345128196571677
8070	1881	345128197402750
8119	1885	345128198253537
8149	1899	345128199058206
8148	1923	345128199864469
8148	1951	345128200705761
8149	1981	345128201516094
8148	2012	345128202249150
8149	2030	345128203030388
8148	2029	345128203837148
8149	2016	345128204552510
8149	2002	345128205610945
8148	2010	345128206425633
8149	2035	345128207257000
8149	2070	345128208079137
8149	2111	345128208801314
8149	2150	345128209605904
8149	2193	345128210527676
8149	2226	345128211578111
8149	2232	345128212410699
8149	2209	345128213264796
8149	2186	345128214067274
8149	2163	345128214878175
8149	2155	345128215710644
8149	2160	345128216519331
8148	2159	345128217358304
8149	2164	345128218216725
8148	2193	345128218988642
8149	2220	345128219794421
8149	2231	345128220632068
8148	2233	345128221302938
8149	2229	345128222142837
8148	2226	345128222969892
8149	2232	345128223771960
8149	2224	345128224577256
8148	2223	345128225415480
8149	2246	345128226259114
8148	2260	345128227064443
8149	2262	345128227889816
8148	2249	345128228696330
8149	2227	345128229501899
8148	2206	345128230469873
8148	2182	345128231369610
8149	2177	345128232205251
8149	2179	345128233028056
8148	2165	345128233804139
8149	2153	345128234610214
8148	2156	345128235536802
8149	2165	345128236322465
8148	2163	345128237136068
8149	2147	345128237930362
8149	2128	345128238734598
8149	2117	345128239537220
8149	2099	345128240500126
8149	2079	345128241403809
8149	2062	345128242059940
8149	2062	345128242881594
8149	2064	345128243689481
8149	2059	345128244454683
8118	2052	345128245308006
8078	2048	345128246162077
8036	2034	345128246957968
7989	2024	345128247783364
7940	2008	345128248586543
7906	1993	345128249404772
7872	1976	345128250166052
7872	1965	345128250980713
7876	1969	345128251796489
7851	1985	345128252411171
7828	1993	345128253245974
7784	2004	345128254044200
7739	2009	345128254864646
7709	2003	345128255682334
7665	1982	345128256488293
7607	1965	345128257333062
7533	1949	345128258173823
7488	1927	345128258809580
7458	1915	345128259633070
7449	1911	345128260540815
7463	1909	345128261431482
7484	1899	345128262282410
7482	1884	345128262937857
7455	1871	345128263740064
7411	1854	345128264562361
7360	1835	345128265301294
7328	1829	345128266142024
7286	1827	345128266952703
7227	1829	345128267778321
7155	1834	345128268584252
7092	1847	345128269192897
7048	1852	345128269993094
6976	1842	345128270816622
6919	1827	345128271645015
6877	1824	345128272449874
6813	1835	345128273281346
6748	1844	345128274044543
6687	1834	345128274852831
6642	1828	345128275690099
6577	1816	345128276517059
6510	1816	345128277353005
6455	1825	345128278184941
6395	1839	345128279000710
