216	2869	345218652366591
217	2850	345218653147823
218	2854	345218653988551
222	2890	345218654843277
228	2887	345218655673656
228	2915	345218656481491
226	2975	345218657239367
224	3010	345218657850436
221	3019	345218658664383
218	3009	345218659493344
218	2987	345218660315767
217	2983	345218661127605
220	2964	345218662113954
219	2959	345218662962433
219	2953	345218663775316
218	2969	345218664570558
217	2997	345218665398001
214	3022	345218666209052
215	3039	345218667039203
218	3029	345218667870042
222	3000	345218668676176
227	2983	345218669493250
231	2971	345218670320023
237	2986	345218671131748
244	3013	345218672025157
251	3045	345218672735573
255	3064	345218673543200
256	3077	345218674369793
252	3078	345218675250953
252	3057	345218676089638
250	3023	345218676837929
247	2995	345218677645676
246	2982	345218678455822
249	2978	345218679277539
252	2966	345218680224387
259	2980	345218680852894
260	2993	345218681656321
261	3018	345218682475753
262	3060	345218683279458
262	3087	345218684104001
262	3066	345218684916880
265	3080	345218685734954
270	3114	345218686533772
274	3148	345218687119677
273	3161	345218687959133
269	3172	345218688787496
265	3180	345218689569752
265	3174	345218690204001
265	3159	345218691031834
266	3145	345218691933839
266	3116	345218692741354
264	3084	345218693357420
263	3069	345218694169946
263	3055	345218695005259
261	3046	345218695847207
261	3046	345218696648889
261	3061	345218697460161
261	3084	345218698266705
263	3095	345218699098513
265	3084	345218700114368
265	3054	345218700953565
265	3025	345218701606844
265	3013	345218702418414
260	3006	345218703223683
257	3000	345218704055276
254	3007	345218704890247
249	3026	345218705741071
249	3041	345218706552407
249	3049	345218707360391
257	3059	345218708159603
261	3062	345218708993344
259	3044	345218709719777
260	3017	345218710545667
260	3005	345218711356633
261	3027	345218711987290
258	3056	345218712831394
257	3090	345218713643287
254	3106	345218714450881
253	3127	345218715268610
251	3141	345218716208363
249	3118	345218717055801
249	3123	345218718032319
245	3105	345218718870882
246	3101	345218719674646
245	3097	345218720363406
243	3098	345218721175353
250	3128	345218722076717
261	3167	345218722942993
266	3191	345218723747735
264	3201	345218724487331
261	3192	345218725248576
262	3165	345218726087130
268	3145	345218726927649
273	3121	345218727749303
269	3094	345218728556251
266	3082	345218729362897
262	3087	345218730243665
261	3106	345218731053087
260	3145	345218731951709
259	3140	345218732753469
261	3117	345218733548265
261	3103	345218734356834
264	3086	345218735234629
263	3058	345218736072406
262	3035	345218736905752
260	3046	345218737705234
263	3054	345218738520276
267	3072	345218739113851
267	3077	345218739970499
269	3061	345218740792850
266	3033	345218741599684
267	3009	345218742401736
269	2990	345218743210298
267	2957	345218744043814
264	2931	345218744902580
263	2919	345218745731067
262	2923	345218746539593
260	2933	345218747341427
261	2968	345218748147621
258	2999	345218748980368
255	3011	345218749803277
253	2998	345218750623960
252	2964	345218751430285
249	2942	345218752235484
247	2922	345218753049102
243	2910	345218753739104
241	2933	345218754565559
241	2980	345218755392455
245	3020	345218756168012
245	3044	345218756989173
247	3042	345218757719684
244	3024	345218758529823
241	2989	345218759375747
251	2961	345218760250675
266	2941	345218761080687
273	2926	345218761981015
274	2946	345218762791147
272	2971	345218763596713
271	2989	345218764419789
273	3004	345218765247139
277	3038	345218766126898
275	3036	345218767044004
275	3011	345218767876074
278	3006	345218768663005
280	3001	345218769487017
278	2987	345218770261195
275	2987	345218771093279
271	3008	345218771990849
268	3026	345218772732273
266	3036	345218773538061
266	3032	345218774380508
262	3037	345218775260905
259	3024	345218776098213
260	2998	345218776929476
263	2970	345218777719083
265	2954	345218778522338
264	2945	345218779335533
263	2961	345218780247531
268	3015	345218780982724
270	3050	345218781804928
272	3076	345218782615313
269	3076	345218783426728
266	3054	345218784225285
265	3023	345218785008465
265	3002	345218785849362
267	2999	345218786671431
267	3015	345218787481699
268	3044	345218788292446
269	3068	345218789060412
270	3088	345218789898668
267	3058	345218790725549
267	3047	345218791552221
274	3062	345218792358686
275	3038	345218793167639
273	3015	345218794005522
271	2986	345218794847652
270	2993	345218795606314
271	3035	345218796442870
269	3061	345218797257835
278	3057	345218798091771
282	3057	345218798927818
283	3048	345218799516819
280	3024	345218800341926
277	3000	345218801171343
274	2989	345218802045528
272	2962	345218802885224
276	2950	345218803686388
276	2951	345218804494242
275	2962	345218805309935
274	2972	345218806143671
272	2986	345218806981214
276	2995	345218807782368
280	2999	345218808586894
280	2995	345218809393873
278	2964	345218810239360
277	2933	345218811097580
276	2913	345218811979177
275	2910	345218812794082
281	2930	345218813601582
289	2927	345218814411817
299	2916	345218815247704
304	2927	345218815961218
305	2944	345218816768640
313	2987	345218817575586
324	3013	345218818236248
323	3003	345218819068375
323	3020	345218819904359
322	3024	345218820749516
321	3032	345218821559880
322	3060	345218822206007
322	3090	345218823032408
320	3122	345218823865632
316	3125	345218824490014
316	3113	345218825334006
322	3082	345218826149666
328	3050	345218826982110
324	3069	345218827802624
325	3078	345218828614107
326	3075	345218829431556
324	3085	345218830195902
321	3097	345218831039571
318	3116	345218831941338
324	3121	345218832772368
336	3115	345218833586036
348	3086	345218834395709
351	3065	345218835261546
356	3059	345218836102377
358	3054	345218836960394
358	3050	345218837784983
358	3047	345218838585639
353	3059	345218839360109
353	3080	345218840233597
363	3078	345218841052501
373	3080	345218841929174
385	3076	345218842701576
405	3048	345218843483409
424	3043	345218844261440
443	3040	345218845213796
450	3018	345218846027774
451	3012	345218846832908
454	3037	345218847458487
455	3074	345218848240665
456	3102	345218849042172
460	3104	345218849874696
461	3078	345218850669559
458	3047	345218851449115
455	3034	345218852245056
455	3024	345218853091013
455	3004	345218853742868
455	2995	345218854566237
450	3008	345218855378830
447	3022	345218856173428
446	3032	345218856935525
446	3050	345218857743950
441	3051	345218858519690
436	3044	345218859348313
432	3025	345218860340773
428	3002	345218861046069
423	2998	345218861983414
420	2990	345218862770200
415	3010	345218863578430
410	3056	345218864403115
406	3107	345218865248428
408	3140	345218866090252
407	3150	345218866993517
418	3124	345218867809947
436	3114	345218868609728
447	3120	345218869435477
454	3123	345218870362909
459	3140	345218871176958
461	3141	345218872076825
458	3141	345218872735007
452	3153	345218873555297
449	3169	345218874384797
448	3149	345218875241839
452	3123	345218876082153
451	3097	345218876814778
452	3087	345218877624684
458	3083	345218878438788
461	3077	345218879262247
466	3074	345218880191998
474	3081	345218880955004
475	3086	345218881743353
470	3095	345218882523929
465	3099	345218883242531
461	3088	345218884043815
458	3065	345218884851944
458	3043	345218885647585
460	3039	345218886428837
460	3036	345218886983452
460	3039	345218887752968
458	3046	345218888531684
454	3064	345218889091995
450	3082	345218889903211
446	3106	345218890693146
443	3106	345218891469393
441	3093	345218892259015
438	3066	345218893052464
439	3051	345218893874665
441	3048	345218894680771
441	3047	345218895376444
438	3034	345218896188285
433	3025	345218897027737
433	3036	345218897878841
431	3045	345218898693170
431	3050	345218899498886
430	3050	345218900323013
425	3044	345218901132557
422	3025	345218902071831
422	2995	345218902936484
420	2976	345218903742262
418	2985	345218904526253
420	3000	345218905287035
424	3024	345218906124450
423	3029	345218906963684
420	3031	345218907787259
419	3025	345218908593479
418	3003	345218909408175
415	2973	345218910266862
414	2956	345218911106373
408	2953	345218911997469
403	2954	345218912758221
399	2960	345218913575072
396	2983	345218914383031
392	3002	345218915270797
388	3008	345218915961583
388	3002	345218916763185
393	2983	345218917574623
401	2955	345218918224043
408	2941	345218919041052
421	2934	345218919894445
435	2938	345218920617698
434	2952	345218921430134
431	2975	345218922237577
425	3004	345218923087518
427	3029	345218923928943
434	3036	345218924751110
442	3023	345218925577452
451	2996	345218926389547
463	2979	345218927190366
473	2959	345218928027189
478	2947	345218928750438
481	2940	345218929574835
476	2942	345218930403970
476	2962	345218931184353
485	2991	345218932109779
492	3007	345218932877827
501	2996	345218933687683
504	2972	345218934486573
503	2939	345218935313408
505	2908	345218936135726
500	2887	345218936999304
503	2886	345218937809170
504	2898	345218938622242
507	2943	345218939425061
509	2975	345218940258997
505	2986	345218941097377
500	2978	345218942106759
492	2948	345218943008544
490	2938	345218943821337
495	2936	345218944647101
501	2936	345218945382852
504	2933	345218946195970
511	2939	345218947025907
513	2958	345218947802310
510	2970	345218948605672
504	2971	345218949431370
498	2960	345218950264929
492	2933	345218951107210
487	2909	345218952004533
483	2904	345218952799378
478	2896	345218953608930
474	2896	345218954412055
472	2904	345218955272414
470	2917	345218955938805
467	2927	345218956765063
463	2945	345218957579485
459	2955	345218958381952
460	2944	345218959192503
456	2922	345218959877962
455	2914	345218960703940
451	2918	345218961531702
453	2931	345218962216466
453	2939	345218963049211
454	2957	345218963875512
454	2986	345218964678897
451	3011	345218965503156
458	3023	345218966131441
457	3018	345218966969998
454	3003	345218967775800
453	2977	345218968575640
454	2963	345218969384617
453	2965	345218970269030
448	2979	345218971104834
447	3004	345218972008721
447	3035	345218972814107
442	3060	345218973640620
436	3066	345218974450692
431	3055	345218975276605
431	3029	345218976108045
431	3003	345218976873456
427	2988	345218977680556
424	2982	345218978513061
421	2980	345218979320805
415	2987	345218980260311
411	3005	345218981092891
410	3018	345218981999865
411	3026	345218982807053
419	3014	345218983612014
432	2993	345218984421478
443	2961	345218985120616
446	2941	345218985978138
444	2933	345218986784174
441	2934	345218987594679
437	2943	345218988399712
432	2960	345218989158194
429	2980	345218990148040
428	2984	345218991006788
425	2979	345218991812799
419	2967	345218992629170
417	2938	345218993290561
414	2913	345218994129477
415	2901	345218994971263
421	2897	345218995811213
433	2906	345218996621530
446	2932	345218997424001
455	2961	345218998265775
459	2982	345218999104786
458	2988	345218999936930
459	2971	345219000610775
461	2946	345219001428661
456	2927	345219002237013
450	2917	345219003068060
446	2917	345219003918481
441	2935	345219004725971
440	2967	345219005574119
435	3003	345219006388474
431	3030	345219007197501
429	3036	345219007922935
427	3025	345219008730777
426	2997	345219009539123
422	2992	345219010373596
420	2995	345219011184778
414	3008	345219012033658
414	3014	345219012881883
409	3026	345219013687456
405	3050	345219014493388
401	3065	345219015340457
395	3063	345219016014348
392	3056	345219016824562
392	3038	345219017627419
390	3011	345219018294052
388	2992	345219019128282
381	2979	345219019989152
381	2976	345219020815648
381	2986	345219021617266
383	3011	345219022419105
382	3040	345219023228587
383	3066	345219024061151
382	3071	345219024784832
378	3068	345219025610425
374	3050	345219026426773
375	3019	345219027230338
370	3008	345219028072614
370	3017	345219028905023
368	3032	345219029728789
367	3055	345219030557310
363	3082	345219031366605
358	3101	345219032199034
356	3108	345219032886711
354	3101	345219033693852
350	3079	345219034517382
347	3050	345219035338669
345	3032	345219036148286
346	3023	345219036978971
345	3025	345219037785067
341	3038	345219038597082
339	3059	345219039420550
337	3080	345219040285701
335	3085	345219041119495
332	3080	345219042026411
329	3060	345219042839567
326	3029	345219043647788
321	3011	345219044474607
320	3004	345219045301033
320	3001	345219046135837
314	3010	345219047019405
313	3030	345219047825292
311	3039	345219048635331
308	3035	345219049461858
311	3019	345219050290936
308	2995	345219051122873
304	2963	345219052023861
308	2947	345219052835013
317	2925	345219053486095
314	2920	345219054308357
311	2923	345219055275845
307	2938	345219056117643
306	2960	345219056974306
303	2966	345219057789455
302	2963	345219058602624
299	2946	345219059405863
297	2915	345219060288317
292	2907	345219061128015
292	2907	345219062017237
294	2914	345219062826920
293	2929	345219063603931
295	2955	345219064403280
295	2969	345219065240182
296	2968	345219066079995
296	2955	345219066909810
298	2925	345219067718522
305	2899	345219068522491
317	2885	345219069346162
332	2871	345219070224141
335	2869	345219071060974
332	2872	345219071955705
332	2889	345219072633123
330	2908	345219073436108
328	2919	345219074263423
339	2921	345219075219507
348	2906	345219076058134
347	2881	345219076886207
343	2865	345219077694281
340	2865	345219078505105
339	2869	345219079312098
339	2885	345219080266297
344	2916	345219081012979
345	2941	345219081821448
350	2961	345219082634908
350	2965	345219083442656
351	2948	345219084246092
350	2916	345219084867176
347	2905	345219085689662
344	2900	345219086515031
341	2905	345219087320378
345	2927	345219088232616
345	2957	345219088993001
350	2990	345219089799074
353	3018	345219090626599
349	3023	345219091450340
350	3009	345219092262600
359	2984	345219093036040
365	2978	345219093821338
370	2975	345219094628850
377	2978	345219095390967
384	2981	345219096198189
397	2995	345219097034467
405	3013	345219097828254
405	3022	345219098655072
400	3024	345219099462782
404	3011	345219100292355
417	2984	345219101123002
431	2952	345219102032782
448	2940	345219102844409
460	2928	345219103643069
468	2923	345219104454724
468	2928	345219105284525
466	2947	345219106115658
462	2970	345219106951365
458	2984	345219107757389
454	2992	345219108562617
450	2987	345219109376175
446	2948	345219110465013
444	2927	345219111297247
442	2938	345219112021613
447	2954	345219112833585
461	2988	345219113637971
472	3025	345219114444287
478	3051	345219115302013
476	3067	345219116269745
472	3056	345219117121745
467	3027	345219117961580
471	3001	345219118759901
478	2993	345219119573449
482	2991	345219120399266
485	2998	345219121158743
481	3019	345219122149641
481	3048	345219123123976
477	3069	345219123989890
478	3071	345219124794292
481	3064	345219125626017
484	3038	345219126428955
485	3008	345219127238169
484	2990	345219128075092
484	2988	345219128889246
483	2994	345219129697304
479	3011	345219130515038
475	3033	345219131315595
471	3058	345219132211445
472	3072	345219132894102
485	3068	345219133698697
501	3047	345219134511173
513	3016	345219135335654
524	3002	345219136160339
520	2989	345219136999481
516	2986	345219137805337
514	2998	345219138615431
521	3016	345219139425153
529	3036	345219140303360
545	3040	345219141151083
559	3030	345219142055496
572	3003	345219142893351
586	2978	345219143691819
595	2962	345219144500689
600	2953	345219145282520
598	2948	345219146135180
592	2955	345219146975840
589	2973	345219147779413
592	2988	345219148605698
591	2995	345219149417424
591	2986	345219150293226
584	2961	345219151123245
579	2932	345219152025157
572	2916	345219152833529
566	2908	345219153654015
564	2909	345219154465144
557	2923	345219155277873
553	2948	345219156106087
549	2974	345219156946275
549	2979	345219157735059
545	2970	345219158559643
540	2953	345219159367942
536	2921	345219160284405
531	2907	345219161122518
527	2908	345219162029429
521	2913	345219162836975
517	2926	345219163644628
511	2952	345219164437822
509	2967	345219165303546
510	2983	345219166153336
518	2980	345219166998336
523	2965	345219167804611
524	2939	345219168522903
525	2923	345219169293211
522	2916	345219170209038
518	2922	345219171069293
513	2945	345219171974628
511	2979	345219172787668
514	3012	345219173582118
525	3028	345219174390175
529	3027	345219175302847
535	3003	345219176134730
541	2993	345219176767017
545	2993	345219177575299
543	2996	345219178400230
538	2999	345219179203826
534	3008	345219180040542
529	3025	345219180778973
525	3035	345219181587386
525	3038	345219182406777
530	3039	345219183209168
535	3025	345219184048375
538	3001	345219184857076
537	2975	345219185686549
537	2963	345219186504250
537	2956	345219187317788
538	2971	345219188198626
533	2997	345219189037182
534	3031	345219189844614
530	3058	345219190684988
526	3067	345219191493200
520	3060	345219192305591
518	3032	345219193160398
517	3026	345219194000244
522	3039	345219194805602
532	3057	345219195623893
543	3069	345219196432813
558	3086	345219197241905
566	3106	345219198072902
566	3114	345219198906306
563	3109	345219199536307
557	3095	345219200374628
551	3065	345219201185387
545	3037	345219202065000
540	3026	345219202892973
534	3022	345219203654359
532	3028	345219204461380
534	3046	345219205302107
535	3069	345219206137249
534	3091	345219206974531
531	3098	345219207775648
527	3091	345219208582179
526	3065	345219209434045
520	3042	345219210302984
515	3035	345219211141186
510	3039	345219212027980
507	3043	345219212835414
506	3049	345219213645632
509	3067	345219214442096
514	3079	345219215279671
519	3088	345219215982234
526	3085	345219216791139
532	3067	345219217585481
532	3039	345219218252490
527	3023	345219219056887
523	3014	345219219873657
524	3010	345219220673716
527	3018	345219221454821
533	3038	345219222353522
535	3059	345219223145381
531	3071	345219223957719
529	3067	345219224747635
526	3061	345219225547479
525	3039	345219226330760
524	3008	345219227129108
525	2993	345219227931485
530	2996	345219228628987
530	3000	345219229427332
526	3011	345219230276633
524	3029	345219231082949
519	3042	345219231952345
520	3045	345219232773554
524	3035	345219233585607
531	3020	345219234410012
535	2991	345219235298409
539	2970	345219236144860
542	2959	345219236980366
553	2965	345219237790418
558	2980	345219238605441
553	3005	345219239433345
550	3032	345219240308120
550	3037	345219241144672
557	3027	345219242049296
567	3002	345219242848602
581	2979	345219243660964
597	2968	345219244487482
612	2964	345219245287470
616	2962	345219246126966
620	2965	345219246953363
617	2985	345219247758172
609	2999	345219248565430
602	3011	345219249361240
599	3011	345219250297083
598	2999	345219251133895
600	2972	345219252031065
611	2957	345219252841705
618	2953	345219253649910
627	2963	345219254476956
632	2984	345219255304532
630	3015	345219256141240
625	3038	345219256996538
624	3043	345219257789124
626	3031	345219258602774
636	3006	345219259378020
650	2973	345219260270534
656	2955	345219261080362
657	2953	345219261965046
655	2956	345219262740235
660	2968	345219263515157
668	2996	345219264285832
670	3019	345219265091407
666	3025	345219265899506
660	3020	345219266686006
657	3003	345219267465599
654	2973	345219268243771
655	2954	345219269062604
652	2943	345219269869631
652	2937	345219270659581
657	2946	345219271440093
668	2964	345219272257860
692	2985	345219273095872
712	2998	345219273923513
724	2999	345219274536718
730	2997	345219275361013
736	2977	345219276188648
730	2953	345219276995745
725	2945	345219277804970
732	2949	345219278623059
741	2955	345219279334656
756	2965	345219280278533
772	2987	345219281030521
781	2999	345219281839419
788	3009	345219282653275
787	3007	345219283457687
786	2990	345219284264964
793	2959	345219284915423
798	2945	345219285754792
798	2941	345219286536997
794	2947	345219287345042
787	2963	345219288212918
782	2984	345219289055425
784	3007	345219289859581
781	3021	345219290701899
773	3016	345219291515617
771	2997	345219292328095
775	2970	345219293154630
777	2947	345219293993801
784	2935	345219294798853
793	2930	345219295643904
796	2933	345219296453389
795	2945	345219297265103
788	2964	345219298114445
787	2976	345219298945781
792	2979	345219299551070
799	2971	345219300392146
807	2949	345219301201272
820	2920	345219302077686
836	2905	345219302905462
852	2891	345219303666349
869	2884	345219304473456
876	2888	345219305323775
877	2905	345219306128274
869	2925	345219307015603
865	2928	345219307789876
868	2920	345219308600615
877	2901	345219309414445
889	2871	345219310314811
900	2854	345219311152363
913	2852	345219312040509
921	2853	345219312800737
929	2859	345219313614600
935	2873	345219314420945
933	2886	345219315315971
929	2888	345219316020773
921	2881	345219316821054
914	2863	345219317632785
906	2834	345219318292311
903	2818	345219319126613
899	2804	345219319981995
893	2799	345219320818965
884	2805	345219321635472
874	2821	345219322420295
866	2845	345219323227572
857	2862	345219324061585
850	2865	345219324914575
842	2857	345219325741357
838	2830	345219326545913
834	2810	345219327351198
832	2797	345219328177656
830	2793	345219328912236
828	2791	345219329740130
818	2804	345219330565394
810	2829	345219331366753
804	2852	345219332239641
806	2868	345219333075878
812	2862	345219334024438
818	2833	345219334854833
822	2819	345219335683301
820	2821	345219336490256
812	2824	345219337067332
806	2830	345219337908183
799	2843	345219338733405
790	2853	345219339557515
790	2846	345219340387471
797	2821	345219341172561
806	2805	345219342074143
818	2789	345219342911250
834	2759	345219343717278
849	2734	345219344541102
862	2727	345219345295802
863	2724	345219346138698
862	2734	345219346964102
854	2760	345219347773978
851	2783	345219348591368
849	2794	345219349418233
852	2788	345219350322004
849	2766	345219351159854
844	2742	345219352054163
840	2736	345219352865267
835	2734	345219353675439
834	2741	345219354498869
830	2756	345219355327040
820	2772	345219356132447
819	2783	345219356991797
825	2786	345219357803237
828	2782	345219358616035
837	2768	345219359415990
846	2736	345219360408894
854	2721	345219361192213
860	2716	345219361924352
854	2715	345219362732802
845	2720	345219363538137
836	2741	345219364336396
827	2757	345219365293409
822	2764	345219366133557
821	2763	345219366965847
820	2750	345219367773635
823	2724	345219368581046
827	2709	345219369414499
828	2707	345219370307600
827	2712	345219371147206
823	2725	345219372025875
823	2746	345219372840241
817	2761	345219373662102
808	2757	345219374423056
799	2749	345219375329750
790	2734	345219376165993
781	2705	345219376994106
776	2690	345219377803536
774	2687	345219378612104
775	2688	345219379416141
780	2702	345219380322799
785	2727	345219381138800
787	2751	345219382066130
787	2765	345219382800573
785	2758	345219383606026
784	2737	345219384396846
778	2714	345219385163071
771	2711	345219386006037
766	2718	345219386830174
767	2729	345219387637278
765	2747	345219388456396
762	2766	345219389048313
762	2777	345219389717000
760	2777	345219390554980
757	2763	345219391178924
759	2746	345219392145894
760	2719	345219392959109
756	2697	345219393763719
752	2684	345219394563179
750	2682	345219395303733
744	2683	345219396126056
739	2691	345219396934327
733	2715	345219397716140
727	2736	345219398489303
722	2749	345219399265081
730	2749	345219400071265
739	2731	345219400899065
752	2704	345219401524006
765	2692	345219402305835
778	2681	345219403111791
783	2674	345219403913816
781	2686	345219404697796
775	2708	345219405512258
772	2736	345219406325050
775	2763	345219407159638
780	2770	345219407801261
781	2767	345219408608994
782	2745	345219409420997
789	2727	345219410320632
799	2722	345219411157544
805	2726	345219411932094
799	2726	345219412753879
793	2732	345219413568683
786	2756	345219414374821
779	2773	345219415320849
775	2772	345219416020514
773	2762	345219416832774
767	2740	345219417636710
759	2712	345219418449651
754	2697	345219419256858
765	2681	345219420117146
776	2675	345219420977192
785	2686	345219421786392
786	2709	345219422429071
781	2730	345219423240340
772	2746	345219424074656
766	2749	345219424869930
764	2740	345219425705446
756	2716	345219426515299
747	2703	345219427317819
741	2701	345219428157215
738	2702	345219428992553
743	2709	345219429818847
744	2730	345219430645542
744	2753	345219431453433
739	2772	345219432301950
732	2780	345219433047837
728	2772	345219433851779
725	2750	345219434676406
727	2728	345219435499184
724	2723	345219436309205
715	2722	345219437149934
709	2734	345219438075914
702	2761	345219438916027
694	2793	345219439719094
688	2813	345219440552503
682	2809	345219441185180
677	2796	345219442113213
673	2772	345219442951214
674	2750	345219443727154
679	2741	345219444527667
696	2744	345219445309101
715	2746	345219446255224
728	2762	345219447115450
726	2786	345219447949659
717	2804	345219448757351
711	2812	345219449437022
704	2808	345219450330941
696	2795	345219451170924
692	2769	345219452090219
694	2758	345219452928747
688	2754	345219453684130
687	2757	345219454509964
689	2776	345219455330988
689	2804	345219456152104
691	2834	345219457007930
689	2844	345219457810995
686	2844	345219458621646
680	2829	345219459423332
673	2796	345219460332713
664	2785	345219461173374
660	2784	345219461920370
660	2788	345219462729787
665	2799	345219463543679
661	2833	345219464364404
652	2863	345219465200368
648	2878	345219466039096
641	2876	345219466814669
633	2859	345219467630017
628	2832	345219468438524
626	2810	345219469266486
623	2800	345219470106486
616	2801	345219470958697
611	2815	345219471703535
608	2834	345219472437038
615	2857	345219473246322
623	2875	345219474095453
629	2882	345219474867609
640	2875	345219475691913
661	2848	345219476494981
678	2823	345219477305570
692	2806	345219478142727
708	2800	345219478993864
720	2802	345219479799301
718	2821	345219480626738
714	2839	345219481395241
712	2850	345219482248561
718	2857	345219483083785
727	2848	345219483941710
733	2826	345219484750050
739	2802	345219485550272
740	2787	345219486351766
737	2780	345219486998929
736	2786	345219487795055
741	2803	345219488621100
744	2827	345219489387621
740	2850	345219490321952
734	2853	345219491154057
727	2842	345219492062471
721	2811	345219492872524
720	2797	345219493700206
717	2792	345219494512352
716	2797	345219495318050
711	2801	345219496150908
712	2809	345219496987844
714	2831	345219497794419
719	2847	345219498622664
727	2856	345219499430270
725	2850	345219500337362
718	2828	345219501175609
720	2798	345219502187760
726	2789	345219503036695
732	2784	345219503689105
735	2793	345219504500599
731	2815	345219505336504
726	2844	345219506145806
722	2871	345219507011386
719	2887	345219507817937
717	2888	345219508624271
719	2866	345219509431394
726	2842	345219510344789
727	2830	345219511202052
717	2827	345219511942562
715	2828	345219512754951
711	2833	345219513553949
705	2851	345219514372232
702	2867	345219515330571
699	2881	345219516049520
699	2880	345219516861174
699	2871	345219517672927
693	2850	345219518474840
687	2823	345219519281898
682	2806	345219520122837
676	2807	345219520883846
671	2820	345219521697881
665	2841	345219522440791
661	2868	345219523266135
661	2888	345219524100974
660	2892	345219524881906
658	2885	345219525661639
652	2861	345219526450569
655	2835	345219527261231
659	2816	345219528120739
663	2818	345219528967733
670	2829	345219529715362
682	2853	345219530536487
693	2882	345219531346046
695	2900	345219532242049
691	2908	345219533099791
693	2899	345219533934841
698	2873	345219534740842
700	2851	345219535577586
698	2840	345219536389945
693	2836	345219537202158
692	2845	345219538061029
691	2866	345219538878768
689	2894	345219539687061
684	2916	345219540507063
676	2923	345219541198776
672	2920	345219542108095
675	2898	345219542960725
687	2877	345219543767384
700	2868	345219544573587
714	2866	345219545318272
717	2867	345219546132657
719	2874	345219546966288
714	2895	345219547792972
710	2914	345219548600936
708	2919	345219549412988
713	2910	345219550336445
728	2894	345219551171670
747	2864	345219552123794
760	2845	345219552959920
763	2838	345219553705582
768	2841	345219554512696
771	2849	345219555340298
768	2864	345219556153205
760	2879	345219556988426
758	2885	345219557815834
757	2882	345219558643051
757	2866	345219559450561
768	2830	345219560347485
779	2806	345219561185120
783	2798	345219561944913
781	2800	345219562771014
779	2814	345219563580255
778	2838	345219564383115
771	2858	345219565332921
763	2870	345219566146317
756	2869	345219566987939
748	2853	345219567785793
740	2826	345219568591661
734	2809	345219569412279
726	2796	345219570291048
724	2798	345219571132915
726	2815	345219571976231
726	2842	345219572812502
730	2867	345219573628107
729	2875	345219574437703
724	2871	345219575345567
720	2852	345219576186847
714	2824	345219577022366
706	2810	345219577715119
699	2808	345219578525887
692	2809	345219579336857
683	2820	345219580272989
677	2845	345219581119670
674	2863	345219582022140
680	2872	345219582825041
686	2860	345219583637883
690	2839	345219584445404
693	2810	345219585313333
687	2795	345219586156582
682	2786	345219586945688
675	2783	345219587768507
671	2789	345219588584928
673	2800	345219589388882
682	2829	345219590336623
696	2836	345219591076864
715	2836	345219591884158
740	2822	345219592690496
757	2796	345219593440772
768	2779	345219594249007
771	2772	345219595108403
768	2770	345219595963928
762	2781	345219596775808
757	2804	345219597579803
755	2821	345219598391863
750	2831	345219599212090
749	2832	345219600051913
752	2814	345219600877507
766	2786	345219601581230
773	2773	345219602201894
777	2768	345219603041088
775	2765	345219603840682
775	2776	345219604640686
771	2795	345219605466728
766	2815	345219606275017
760	2825	345219607125978
764	2821	345219607826171
772	2812	345219608639149
782	2795	345219609437015
792	2761	345219610430604
795	2747	345219611244799
793	2747	345219611951069
787	2751	345219612763028
778	2771	345219613582513
772	2801	345219614405714
765	2821	345219615344386
758	2832	345219616324480
761	2818	345219617188961
759	2791	345219618024494
759	2769	345219618832457
764	2757	345219619658917
773	2747	345219620340560
780	2748	345219621176534
783	2757	345219622088680
788	2781	345219622942371
790	2801	345219623763270
786	2808	345219624450493
772	2798	345219625959451
769	2768	345219626575025
772	2749	345219627378395
789	2732	345219628215027
797	2725	345219629033216
796	2727	345219629861841
800	2747	345219630685969
800	2771	345219631496666
799	2790	345219632305792
800	2803	345219633066373
799	2797	345219633870834
795	2781	345219634696915
788	2756	345219635520236
785	2748	345219636328591
787	2748	345219637169455
794	2760	345219638006757
792	2784	345219638820116
789	2812	345219639642934
786	2838	345219640472226
780	2848	345219641102610
773	2844	345219642059700
765	2822	345219642871737
757	2803	345219643651399
749	2795	345219644479059
743	2799	345219645330491
737	2807	345219646173735
732	2823	345219647001787
726	2856	345219647776356
725	2878	345219648577349
733	2892	345219649419339
739	2890	345219650347181
735	2870	345219651188672
731	2840	345219652087976
725	2827	345219652895650
734	2821	345219653578813
745	2829	345219654402583
762	2850	345219655340854
779	2876	345219656170667
792	2902	345219657022440
807	2913	345219657829099
818	2911	345219658639466
813	2892	345219659443185
810	2861	345219660351323
817	2843	345219661188226
820	2838	345219661930079
819	2839	345219662747069
818	2853	345219663562049
814	2880	345219664365932
810	2900	345219665195757
812	2909	345219666038378
819	2905	345219666857420
831	2889	345219667662630
840	2861	345219668462044
838	2841	345219669298192
837	2831	345219670258001
839	2834	345219671115486
835	2852	345219672052269
831	2883	345219672869927
843	2903	345219673683135
855	2905	345219674458517
860	2893	345219675362138
870	2867	345219676200723
877	2845	345219677031255
871	2830	345219677838460
864	2826	345219678585180
871	2827	345219679408874
882	2837	345219680349821
879	2855	345219681173399
878	2867	345219682103314
873	2869	345219682837476
872	2859	345219683645748
866	2832	345219684449526
858	2804	345219685359198
851	2790	345219686205009
846	2779	345219686956417
845	2766	345219687760360
845	2757	345219688570322
844	2764	345219689376598
833	2792	345219690224494
831	2806	345219691067063
830	2806	345219691890161
826	2789	345219692703232
818	2759	345219693514427
808	2734	345219694338296
803	2725	345219695301031
794	2729	345219696142169
790	2743	345219696895133
787	2764	345219697707190
788	2781	345219698519256
792	2796	345219699344109
800	2796	345219700296544
803	2780	345219701136710
807	2756	345219702031679
812	2745	345219702834195
810	2743	345219703585974
802	2752	345219704404520
797	2779	345219705239653
798	2811	345219706045299
806	2841	345219706876478
812	2851	345219707685168
804	2840	345219708493353
799	2815	345219709297245
802	2792	345219710133615
806	2774	345219710984038
801	2772	345219711806520
799	2774	345219712617186
797	2786	345219713427935
790	2816	345219714088576
784	2839	345219714890921
785	2859	345219715719543
784	2867	345219716516983
781	2854	345219717325867
774	2826	345219718164528
771	2806	345219719017856
776	2798	345219719822242
775	2786	345219720645003
769	2783	345219721471979
762	2795	345219722332313
763	2819	345219723166707
763	2840	345219724001340
754	2846	345219724811883
751	2843	345219725643039
765	2829	345219726489692
777	2800	345219727299304
785	2788	345219728135075
804	2783	345219728835180
816	2784	345219729642863
820	2794	345219730472068
812	2820	345219731299588
808	2840	345219732197793
806	2849	345219732838199
805	2844	345219733662324
803	2824	345219734477160
802	2797	345219735368731
803	2784	345219736223861
807	2780	345219736961654
817	2786	345219737769963
829	2797	345219738572577
842	2812	345219739377376
844	2831	345219740334269
845	2834	345219741100071
853	2830	345219741905981
861	2819	345219742723325
859	2792	345219743523878
860	2769	345219744338293
862	2760	345219745300192
851	2757	345219746157168
842	2767	345219746991342
833	2796	345219747775331
829	2826	345219748606123
835	2847	345219749423365
847	2850	345219750356914
850	2839	345219751186854
856	2813	345219752089850
866	2798	345219752899579
868	2795	345219753600050
862	2805	345219754407321
858	2829	345219755346056
866	2861	345219756184656
893	2894	345219757021454
932	2909	345219757824426
954	2904	345219758658779
967	2879	345219759465598
962	2867	345219760367482
968	2862	345219761228771
976	2865	345219761973988
984	2870	345219762787036
985	2884	345219763591480
975	2906	345219764399172
963	2924	345219765239217
964	2930	345219766092527
971	2926	345219766897461
981	2908	345219767702904
997	2881	345219768501868
1010	2869	345219769312458
1012	2866	345219770154376
1007	2869	345219771029622
1011	2882	345219771833601
1013	2903	345219772646687
1016	2930	345219773474657
1010	2944	345219774283286
1002	2941	345219775122461
993	2926	345219775966995
982	2895	345219776873855
975	2877	345219777707018
969	2871	345219778536737
962	2869	345219779345489
953	2877	345219780308126
952	2896	345219780970895
951	2905	345219781779629
947	2916	345219782609988
937	2912	345219783833341
930	2894	345219784660564
922	2865	345219785489901
920	2849	345219786314632
913	2833	345219786968199
915	2829	345219787772161
920	2832	345219788599828
921	2845	345219789409846
917	2869	345219790358001
913	2883	345219791101139
909	2886	345219791908721
908	2875	345219792726661
904	2845	345219793555639
895	2826	345219794363283
889	2814	345219795219394
878	2808	345219796076331
871	2813	345219796889182
864	2827	345219797693661
858	2845	345219798522587
854	2852	345219799327534
857	2845	345219800166033
858	2827	345219801011354
860	2804	345219801714696
862	2777	345219802529638
860	2756	345219803349619
859	2743	345219804192436
855	2745	345219805021902
848	2760	345219805721327
842	2781	345219806533066
833	2799	345219807339791
827	2806	345219808182296
828	2805	345219809017170
835	2784	345219809715863
842	2758	345219810556306
847	2743	345219811362260
856	2742	345219812250199
865	2751	345219813101516
859	2770	345219813910826
869	2797	345219814720344
881	2817	345219815539425
887	2826	345219816347324
892	2821	345219817187682
888	2802	345219818047615
884	2775	345219818857233
887	2763	345219819665386
895	2757	345219820487922
897	2766	345219821295152
893	2793	345219822195846
891	2829	345219823114756
898	2852	345219823925592
908	2858	345219824725100
897	2850	345219825571551
889	2828	345219826357737
883	2802	345219827193730
875	2792	345219828023384
871	2793	345219828834288
876	2802	345219829644517
877	2821	345219830491509
887	2840	345219831300390
889	2846	345219832264755
882	2837	345219833102464
874	2816	345219833911167
866	2787	345219834715404
856	2764	345219835558363
850	2749	345219836335318
845	2725	345219836972436
842	2703	345219837803054
847	2682	345219838637347
855	2688	345219839409929
851	2717	345219840372073
851	2736	345219841111960
858	2747	345219841917407
858	2741	345219842751414
849	2713	345219843537806
842	2694	345219844346830
834	2685	345219845119592
829	2683	345219845920609
822	2692	345219846728564
822	2720	345219847349728
832	2747	345219848184848
843	2773	345219849066522
843	2786	345219849873228
840	2774	345219850699690
836	2748	345219851476832
829	2733	345219852299801
819	2727	345219853137105
815	2729	345219853971424
821	2742	345219854795544
835	2765	345219855604423
850	2791	345219856413631
857	2810	345219857239254
853	2807	345219858076565
847	2793	345219858884554
850	2767	345219859711706
857	2744	345219860549574
865	2733	345219861355493
883	2740	345219862251470
902	2749	345219863101912
923	2772	345219863907586
926	2797	345219864709432
921	2807	345219865531992
923	2809	345219866348761
931	2797	345219867201097
934	2773	345219868032975
937	2748	345219868837137
937	2740	345219869641323
932	2733	345219870480962
937	2737	345219871285834
941	2753	345219872208724
952	2782	345219873027244
962	2806	345219873853760
968	2815	345219874479463
976	2817	345219875393436
975	2804	345219876229264
965	2776	345219877083802
961	2766	345219877890289
965	2765	345219878601478
971	2769	345219879419674
985	2793	345219880369961
995	2834	345219881193096
1014	2867	345219882121206
1028	2883	345219882727860
1035	2885	345219883542595
1035	2871	345219884344030
1028	2843	345219885095578
1021	2828	345219885925835
1012	2818	345219886749814
1014	2819	345219887557124
1023	2835	345219888383671
1027	2867	345219889213765
1030	2902	345219890059088
1023	2924	345219890886547
1014	2927	345219891710375
1007	2910	345219892522796
1012	2883	345219893231140
1015	2862	345219894207113
1014	2855	345219895054536
1007	2860	345219895879797
1000	2872	345219896684439
1004	2898	345219897359340
1000	2921	345219898203191
997	2940	345219899048812
992	2945	345219899853258
995	2928	345219900680728
998	2900	345219901457603
1005	2879	345219902194634
1006	2871	345219903030524
1002	2862	345219903854400
1003	2867	345219904669039
1001	2881	345219905498192
1003	2899	345219906285324
994	2919	345219907122214
996	2924	345219907729154
987	2919	345219908553178
977	2902	345219909365203
972	2870	345219910330963
982	2856	345219911168165
1008	2849	345219911980955
1011	2845	345219912787504
1002	2853	345219913624955
997	2871	345219914416629
994	2891	345219915378226
985	2900	345219916078830
981	2896	345219916889793
980	2880	345219917706147
974	2851	345219918532415
971	2833	345219919341639
963	2827	345219920180644
955	2831	345219921059923
945	2847	345219921715328
938	2859	345219922365607
932	2869	345219923217612
925	2866	345219924054450
921	2855	345219924731101
921	2845	345219925553033
931	2823	345219926363229
927	2797	345219927197128
919	2784	345219928057278
912	2785	345219928863081
906	2792	345219929672789
900	2814	345219930490341
892	2841	345219931310523
887	2860	345219932215543
879	2867	345219932979298
871	2861	345219933785271
865	2839	345219934596159
861	2815	345219935417234
858	2807	345219936253634
853	2799	345219936984406
855	2800	345219937715349
856	2808	345219938530618
857	2828	345219939338836
850	2857	345219940313271
842	2871	345219941124129
843	2874	345219941940492
838	2860	345219942748923
837	2835	345219943557145
836	2819	345219944362974
838	2815	345219945235919
830	2814	345219946079172
827	2827	345219946890136
830	2859	345219947691970
829	2896	345219948498967
832	2924	345219949309008
829	2926	345219950383656
828	2898	345219951225210
820	2874	345219952131132
812	2866	345219952987110
813	2864	345219953615641
823	2871	345219954421011
836	2890	345219955375314
842	2914	345219956197178
834	2934	345219957034142
836	2938	345219957717471
834	2930	345219958527288
837	2910	345219959330156
858	2880	345219960171387
872	2862	345219961029310
873	2857	345219961838232
867	2867	345219962666288
860	2887	345219963475521
857	2917	345219964282665
853	2940	345219965127142
848	2950	345219965983053
838	2943	345219966699408
835	2924	345219967484571
831	2894	345219968238617
827	2888	345219969079039
827	2888	345219969905052
836	2890	345219970699760
844	2899	345219971507975
846	2908	345219972316793
859	2927	345219973153861
862	2941	345219974142765
862	2934	345219974934407
864	2918	345219975760730
857	2889	345219976488401
856	2866	345219977310596
864	2855	345219978148083
874	2851	345219978981931
866	2856	345219979804825
865	2870	345219980629415
864	2889	345219981441026
856	2908	345219982311928
861	2915	345219983146131
862	2902	345219983950489
856	2875	345219984782130
848	2852	345219985608222
860	2839	345219986416239
882	2831	345219987244665
876	2841	345219988083293
869	2859	345219988894836
863	2885	345219989717577
856	2907	345219990542643
852	2911	345219991135255
846	2907	345219992057389
838	2892	345219992868182
832	2861	345219993673477
821	2839	345219994477989
814	2834	345219995242359
808	2833	345219996080989
800	2842	345219996906463
793	2859	345219997715069
788	2884	345219998526960
781	2902	345219999335706
780	2907	345220000167737
776	2895	345220001024654
771	2873	345220001849990
765	2848	345220002659801
758	2844	345220003313095
759	2850	345220004130366
759	2867	345220004936185
755	2885	345220005616936
762	2904	345220006453235
767	2922	345220007264839
767	2927	345220008099219
767	2917	345220008923607
763	2894	345220009730666
755	2867	345220010558971
746	2850	345220011360096
744	2848	345220012261433
748	2856	345220013081090
763	2883	345220013909292
775	2916	345220014720047
788	2943	345220015544848
794	2956	345220016367201
791	2945	345220017203518
783	2918	345220018022347
785	2896	345220018823124
791	2886	345220019629551
795	2882	345220020240575
801	2889	345220021094196
811	2907	345220021903728
815	2930	345220022724932
812	2954	345220023527000
808	2964	345220024333489
802	2959	345220025167992
799	2940	345220026039415
799	2908	345220026844282
796	2882	345220027653454
789	2869	345220028450855
790	2864	345220029261812
800	2867	345220030249573
807	2885	345220031092619
811	2906	345220031896622
807	2922	345220032714492
804	2922	345220033539408
811	2910	345220034347968
815	2886	345220035188510
825	2863	345220036064253
845	2848	345220036871858
866	2846	345220037683172
874	2861	345220038489432
870	2891	345220039294895
861	2930	345220040134962
852	2952	345220041008407
859	2962	345220041716233
863	2959	345220042532008
862	2937	345220043122301
862	2916	345220043927727
854	2909	345220044737828
848	2912	345220045580769
841	2930	345220046391736
836	2961	345220047227223
828	2998	345220048081895
822	3022	345220048889857
816	3034	345220049697047
808	3028	345220050542792
802	3008	345220051351954
805	2983	345220052238439
802	2974	345220052998418
797	2972	345220053623623
802	2979	345220054423149
813	2994	345220055393346
826	3013	345220056231525
827	3031	345220057068328
821	3034	345220057720119
814	3028	345220058535532
812	3011	345220059341921
817	2980	345220060196508
825	2958	345220061029930
851	2951	345220061835373
869	2948	345220062683116
871	2953	345220063495060
866	2972	345220064300737
857	2995	345220065287248
850	3009	345220066124461
847	3006	345220066939027
842	2990	345220067744684
836	2962	345220068552544
834	2944	345220069359918
829	2937	345220070260099
833	2943	345220071103350
833	2960	345220072085483
833	2988	345220072890507
827	3015	345220073704947
821	3021	345220074383315
815	3022	345220075314016
809	3009	345220076155466
803	2978	345220076933590
796	2959	345220077758745
789	2953	345220078566207
783	2950	345220079370740
776	2960	345220080202516
774	2997	345220081114226
769	3036	345220081925890
762	3057	345220082751836
764	3056	345220083563964
772	3036	345220084373743
784	3003	345220085300287
791	2995	345220086129254
795	2990	345220086875397
797	2991	345220087697836
792	3004	345220088518157
788	3023	345220089326867
796	3044	345220090189584
810	3052	345220091041420
811	3047	345220091852946
803	3032	345220092659149
799	3000	345220093378690
797	2978	345220094213813
794	2966	345220095075790
787	2961	345220095901549
784	2965	345220096711126
782	2976	345220097380781
780	2986	345220098222973
777	2992	345220099059023
775	2995	345220099885931
772	2990	345220100711487
764	2979	345220101511528
763	2950	345220102339274
759	2929	345220103173883
755	2916	345220104005451
759	2919	345220104828185
761	2933	345220105631639
769	2959	345220106441260
770	2979	345220107275985
764	2980	345220108111635
756	2970	345220108918768
751	2945	345220109747748
754	2917	345220110580697
766	2902	345220111388023
775	2900	345220112272431
767	2902	345220113110993
763	2915	345220113920198
758	2937	345220114745706
750	2951	345220115569368
748	2958	345220116380404
750	2948	345220117232083
747	2925	345220118132310
738	2897	345220118946605
732	2882	345220119747074
732	2870	345220120570163
739	2874	345220121380649
742	2898	345220122347406
744	2933	345220123191237
741	2965	345220124036394
737	2980	345220124866263
733	2982	345220125705008
729	2961	345220126504359
724	2934	345220127326986
722	2923	345220128163142
721	2928	345220129047314
711	2944	345220129875599
704	2977	345220130627123
698	3011	345220131435872
692	3042	345220132320568
690	3052	345220132995560
689	3050	345220133804989
687	3030	345220134632273
683	3006	345220135455290
676	2995	345220136273773
673	2987	345220137145937
668	2993	345220137963854
667	3010	345220138779648
663	3036	345220139601736
663	3063	345220140429724
661	3069	345220141152979
662	3063	345220142081024
660	3036	345220142892288
652	3013	345220143698375
647	3004	345220144504655
647	2998	345220145261848
642	2991	345220146102389
635	2989	345220146931486
633	2999	345220147739996
630	3013	345220148545783
628	3024	345220149306040
630	3026	345220150144115
639	3015	345220151002709
649	2989	345220151832406
658	2965	345220152643941
659	2954	345220153442432
674	2955	345220154279434
682	2968	345220155119734
684	2991	345220155942131
680	3019	345220156769511
684	3034	345220157580789
691	3036	345220158389642
700	3024	345220159217745
711	2997	345220159883509
708	2978	345220160708203
708	2963	345220161536016
714	2958	345220162328840
733	2961	345220163159282
742	2983	345220164005447
738	3005	345220164810691
740	3016	345220165644248
740	3018	345220166472996
743	3008	345220167281851
746	2984	345220168121268
750	2953	345220168937634
745	2937	345220169750651
745	2932	345220170580468
749	2942	345220171408546
758	2959	345220172282828
766	2984	345220173122451
765	2998	345220173921503
760	2997	345220174746721
752	2987	345220175574213
748	2959	345220176401246
742	2936	345220177234863
739	2921	345220178129563
738	2915	345220178905647
732	2917	345220179712580
725	2928	345220180538076
724	2948	345220181296899
720	2960	345220182208509
715	2963	345220183048639
709	2954	345220183870347
708	2935	345220184677880
711	2906	345220185506724
709	2890	345220186309629
711	2888	345220187148932
710	2896	345220187957900
715	2917	345220188791195
723	2945	345220189601787
728	2970	345220190424728
724	2972	345220191138568
719	2958	345220191935347
716	2937	345220192750193
720	2910	345220193573580
717	2895	345220194372260
715	2888	345220195213661
710	2885	345220196085930
702	2893	345220196902147
698	2912	345220197711633
690	2932	345220198531344
683	2947	345220199349708
682	2948	345220200185496
677	2931	345220201029776
675	2904	345220201713946
674	2886	345220202518661
669	2879	345220203349165
672	2882	345220204190332
680	2893	345220205022225
689	2916	345220205642895
696	2938	345220206456651
701	2962	345220207281327
701	2968	345220208133663
701	2963	345220208940243
696	2939	345220209715996
691	2917	345220210555914
691	2906	345220211361011
703	2906	345220212263258
716	2907	345220213111831
732	2919	345220213921569
734	2935	345220214732741
727	2951	345220215552608
723	2957	345220216357092
716	2953	345220217191121
710	2937	345220218041825
704	2908	345220218847989
700	2888	345220219653547
705	2878	345220220264704
710	2881	345220221092416
715	2895	345220221897668
719	2921	345220222707559
715	2952	345220223513663
714	2966	345220224320572
714	2970	345220225179800
719	2959	345220226099320
718	2927	345220226888242
709	2914	345220227717501
705	2915	345220228515077
704	2917	345220229314750
697	2934	345220230300078
692	2953	345220231130025
690	2967	345220231938671
686	2978	345220232762099
694	2975	345220233573206
700	2958	345220234350509
700	2930	345220235183131
697	2906	345220236024185
701	2889	345220236828854
706	2883	345220237650850
708	2891	345220238462823
706	2911	345220239283182
701	2937	345220240140240
696	2960	345220240967786
691	2971	345220241776646
686	2962	345220242580993
692	2937	345220243390383
687	2919	345220244225260
681	2910	345220245083950
679	2908	345220245908236
676	2916	345220246716430
671	2940	345220247540257
667	2962	345220248347744
663	2975	345220249180133
662	2973	345220250030811
657	2959	345220250859825
653	2934	345220251518854
654	2916	345220252350154
650	2908	345220253183877
646	2908	345220253965029
649	2922	345220254770580
646	2937	345220255594385
640	2956	345220256406596
633	2972	345220257257103
629	2974	345220258098094
624	2965	345220258904896
624	2941	345220259711475
617	2911	345220260532495
611	2895	345220261342265
610	2895	345220262261408
603	2906	345220263105852
602	2928	345220263910001
596	2952	345220264729304
591	2968	345220265556208
592	2976	345220266364358
594	2964	345220267216255
594	2938	345220268050430
589	2915	345220268858772
584	2909	345220269659743
583	2909	345220270271536
584	2923	345220271165060
586	2948	345220272093832
594	2979	345220272906763
598	3002	345220273677660
594	3005	345220274393512
589	2998	345220275230269
587	2976	345220276085020
588	2950	345220276760336
590	2946	345220277569082
598	2954	345220278379577
597	2961	345220279228398
594	2976	345220280065030
597	3008	345220280896959
591	3029	345220281726993
592	3039	345220282539819
591	3039	345220283346046
589	3028	345220284174067
587	3000	345220284764106
587	2983	345220285590239
583	2974	345220286431606
582	2970	345220287264804
584	2979	345220288103523
590	2994	345220288909915
603	3019	345220289712016
610	3042	345220290542065
603	3046	345220291366826
600	3037	345220292264008
601	3017	345220293104365
600	2987	345220293924723
611	2972	345220294733551
632	2969	345220295551974
661	2971	345220296390382
689	2988	345220297228921
688	3015	345220298064988
684	3039	345220298868671
680	3052	345220299679193
682	3052	345220300506721
678	3038	345220301335353
677	3004	345220302244573
676	2990	345220303083593
675	2987	345220303880189
676	2992	345220304691254
671	3011	345220305514324
666	3046	345220306337618
660	3075	345220307169995
660	3087	345220307772683
656	3091	345220308600031
649	3083	345220309412525
644	3049	345220310360511
638	3034	345220311189428
638	3032	345220311901883
631	3033	345220312712094
626	3046	345220313542116
625	3068	345220314349705
618	3081	345220315184830
613	3086	345220316023632
610	3084	345220316835024
609	3077	345220317648268
608	3051	345220318478031
610	3033	345220319299174
609	3033	345220320137725
613	3041	345220320976464
613	3057	345220321788326
611	3069	345220322605621
610	3083	345220323429870
607	3081	345220324261939
602	3065	345220325101821
599	3042	345220325924234
611	3014	345220326528831
615	2995	345220327334775
619	2975	345220328188612
626	2971	345220328957455
627	2969	345220329718340
631	2984	345220330538054
629	3010	345220331339035
631	3039	345220332254446
638	3055	345220333020345
633	3057	345220333828092
627	3049	345220334639378
628	3024	345220335480983
628	2993	345220336301328
627	2971	345220337146417
628	2980	345220337973359
624	3021	345220338801105
628	3070	345220339611542
631	3113	345220340433419
628	3139	345220341277527
623	3147	345220342174738
621	3130	345220343033738
616	3097	345220343839829
614	3079	345220344651933
615	3063	345220345273931
611	3059	345220346118490
612	3081	345220346926228
618	3123	345220347722174
624	3161	345220348532919
629	3193	345220349340564
624	3194	345220350100973
619	3173	345220350929848
618	3141	345220351541868
621	3130	345220352372214
618	3120	345220353210607
614	3107	345220354045715
608	3101	345220354816972
605	3110	345220355610445
611	3135	345220356390479
609	3160	345220357225447
607	3170	345220358027291
600	3167	345220358803800
599	3145	345220359578933
594	3114	345220360485731
591	3104	345220361279629
592	3099	345220362169364
589	3097	345220362955787
591	3103	345220363736249
589	3122	345220364508234
583	3144	345220365307677
583	3156	345220366001476
577	3155	345220366789163
572	3144	345220367566265
569	3119	345220368125492
569	3100	345220368951567
563	3085	345220369759359
560	3076	345220370582225
559	3078	345220371384126
557	3099	345220372282556
559	3132	345220373117793
557	3157	345220373905975
555	3161	345220374713905
547	3153	345220375541337
549	3129	345220376344339
546	3099	345220377181945
543	3083	345220377986713
543	3076	345220378809485
537	3077	345220379617354
541	3090	345220380442663
537	3115	345220381173607
534	3131	345220381977261
532	3146	345220382784694
529	3142	345220383611075
525	3122	345220384418318
524	3092	345220385241203
527	3071	345220386087352
524	3056	345220386902930
525	3053	345220387713824
525	3063	345220388543562
528	3086	345220389273967
534	3111	345220390115284
533	3128	345220390937608
536	3132	345220391746699
545	3123	345220392561057
542	3092	345220393354660
540	3073	345220394200372
545	3065	345220395036141
550	3062	345220395831693
551	3063	345220396612044
559	3075	345220397251231
556	3089	345220398241287
559	3108	345220399064741
558	3118	345220399821481
552	3114	345220400638433
552	3092	345220401420036
549	3071	345220402282085
543	3073	345220403082464
545	3076	345220403863893
547	3079	345220404563822
552	3074	345220405445321
548	3069	345220406251912
543	3069	345220407052618
539	3062	345220407767331
538	3051	345220408551925
533	3027	345220409330363
536	3002	345220410159133
531	2983	345220410954989
536	2960	345220411733138
533	2928	345220412526935
534	2912	345220413342041
541	2921	345220414021704
541	2940	345220414815258
542	2962	345220415609337
543	2976	345220416390605
539	2976	345220417187602
534	2969	345220417967476
535	2951	345220418776652
531	2921	345220419607335
529	2901	345220420439096
528	2904	345220421278320
525	2923	345220422271896
527	2965	345220423124949
522	2994	345220423929850
521	3005	345220424754922
516	3004	345220425551489
519	2991	345220426362810
520	2963	345220427217121
521	2932	345220428056730
528	2918	345220428779416
526	2916	345220429605187
534	2932	345220430442049
532	2959	345220431279925
530	2995	345220432185729
532	3051	345220433000869
527	3075	345220433715796
523	3068	345220434542340
521	3036	345220435449606
516	3018	345220436257150
514	3025	345220436914976
512	3036	345220437721095
509	3037	345220438535208
512	3049	345220439346842
518	3076	345220440180962
518	3086	345220441001015
513	3082	345220441715966
512	3072	345220442529799
515	3042	345220443166233
514	3018	345220443986598
513	3000	345220444803899
510	2989	345220445619454
507	2985	345220446423255
507	2991	345220447256321
502	3008	345220448089889
497	3023	345220448914611
496	3029	345220449715020
493	3022	345220450542271
489	3011	345220451345170
488	2984	345220452249691
482	2964	345220453082996
481	2958	345220453914854
476	2962	345220454744205
474	2978	345220455574843
471	3005	345220456399952
466	3029	345220457236851
467	3035	345220458072463
463	3033	345220458902039
469	3017	345220459712890
467	2984	345220460539151
466	2964	345220461301185
469	2956	345220462211714
469	2954	345220463049455
480	2969	345220463875650
491	2991	345220464686018
501	3006	345220465515570
511	3015	345220466321031
513	3017	345220467157824
518	3010	345220467964972
515	2982	345220468724686
510	2966	345220469541392
509	2952	345220470448193
506	2953	345220471305499
505	2968	345220472209627
503	2999	345220473020306
497	3027	345220473793035
499	3044	345220474416318
494	3047	345220475251588
495	3033	345220476129218
499	3001	345220476934779
502	2977	345220477742202
510	2965	345220478541815
509	2963	345220479349119
510	2977	345220480307851
508	3007	345220481141097
503	3033	345220481824492
506	3051	345220482633678
503	3054	345220483457738
503	3040	345220484289857
503	3011	345220485032859
502	2991	345220485879372
499	2977	345220486685200
498	2971	345220487504707
495	2975	345220488350472
492	2995	345220489189617
488	3025	345220490003658
488	3047	345220490847888
485	3060	345220491662018
485	3058	345220492475403
490	3031	345220493168569
491	3013	345220493975500
496	3004	345220494783498
497	3010	345220495615986
499	3022	345220496424100
508	3042	345220497267627
510	3065	345220498124553
512	3080	345220498934674
513	3085	345220499735684
510	3075	345220500589604
506	3057	345220501404331
503	3027	345220502296485
498	3014	345220503135658
497	3010	345220503942643
494	3018	345220504755620
492	3036	345220505600849
486	3063	345220506411429
482	3084	345220507243622
482	3086	345220508074051
478	3084	345220508882277
480	3065	345220509691373
481	3036	345220510547463
488	3025	345220511361694
493	3027	345220512270399
493	3038	345220513129666
499	3049	345220513923450
500	3057	345220514730418
499	3062	345220515549735
501	3072	345220516385117
494	3071	345220517218279
494	3056	345220518069331
489	3026	345220518877169
486	3010	345220519680417
485	3011	345220520501114
487	3019	345220521318085
485	3033	345220522229465
489	3050	345220523093575
483	3063	345220523899970
486	3066	345220524704587
485	3058	345220525554411
492	3031	345220526366279
490	3011	345220527204314
494	3007	345220528004699
498	3009	345220528802084
496	3011	345220529611500
503	3023	345220530456284
505	3044	345220531289246
502	3057	345220532195465
501	3058	345220532920015
495	3048	345220533743504
491	3025	345220534553452
493	2999	345220535452724
490	2995	345220536297552
490	2998	345220537142273
494	3005	345220537957045
493	3011	345220538773691
489	3015	345220539586715
486	3017	345220540460835
487	3019	345220541296672
483	3012	345220542206410
486	2987	345220543011695
483	2972	345220543818396
486	2968	345220544627068
490	2968	345220545449263
489	2965	345220546286556
495	2973	345220547093212
494	2992	345220547916266
489	2999	345220548720495
490	3005	345220549429334
484	2995	345220550399084
481	2981	345220551234598
481	2953	345220552136229
481	2935	345220552895683
478	2932	345220553555239
478	2936	345220554364073
478	2947	345220555223572
478	2964	345220556129683
478	2988	345220556940786
477	3001	345220557680637
474	3003	345220558489791
475	2992	345220559320738
481	2967	345220560178035
481	2948	345220561006302
486	2939	345220561814741
485	2936	345220562640299
485	2947	345220563446633
488	2969	345220564279558
486	2989	345220565140929
485	3004	345220565970964
482	3004	345220566799293
476	2989	345220567604684
474	2963	345220568194176
472	2948	345220568990016
470	2933	345220569716220
469	2925	345220570547163
467	2930	345220571355050
464	2953	345220572256780
466	2986	345220573095920
463	3011	345220573901631
461	3012	345220574731933
457	3008	345220575523685
460	2986	345220576353713
462	2967	345220577204667
467	2956	345220578013410
472	2952	345220578812338
472	2953	345220579642844
475	2967	345220580469354
470	2987	345220581312878
466	3000	345220582236685
465	3009	345220583073325
462	3017	345220583883541
462	3015	345220584681783
458	2988	345220585510792
453	2972	345220586327534
451	2963	345220587203502
447	2969	345220588060422
441	2989	345220588885001
441	3017	345220589707329
434	3042	345220590534205
433	3049	345220591343591
431	3043	345220592265789
431	3022	345220593081809
428	2992	345220593894474
429	2969	345220594753195
434	2964	345220595586275
433	2963	345220596395679
433	2978	345220597253593
431	2999	345220598091667
429	3018	345220598905549
428	3031	345220599710436
424	3026	345220600532879
421	3010	345220601344091
418	2979	345220602263211
413	2968	345220603117001
411	2966	345220603927618
409	2978	345220604755149
406	2993	345220605582421
410	3021	345220606394828
409	3047	345220607223479
406	3057	345220608055507
402	3047	345220608868760
402	3019	345220609704608
404	2989	345220610550778
410	2982	345220611358654
415	2995	345220612253014
417	3007	345220613090547
422	3019	345220613897629
425	3034	345220614718456
422	3050	345220615542525
420	3057	345220616481059
417	3047	345220617333480
413	3025	345220618178315
411	2995	345220618985693
408	2978	345220619787041
405	2971	345220620609040
404	2979	345220621396835
399	3001	345220622310917
397	3028	345220623172590
394	3052	345220623994352
393	3061	345220624679474
390	3058	345220625505647
390	3039	345220626331478
388	3006	345220627182382
388	2986	345220627992519
394	2978	345220628800708
397	2979	345220629630601
404	2990	345220630460476
412	3012	345220631300309
419	3029	345220632204293
418	3039	345220632922668
416	3036	345220633745752
413	3026	345220634576450
416	3003	345220635474734
415	2978	345220636317978
411	2962	345220637153635
409	2958	345220637963500
406	2967	345220638774585
407	2990	345220639606471
405	3011	345220640479860
403	3026	345220641314709
396	3038	345220642241558
398	3031	345220643059713
398	3006	345220643865249
399	2982	345220644690777
400	2978	345220645512582
397	2983	345220646334463
398	3008	345220647187616
398	3038	345220647997114
398	3063	345220648789909
399	3079	345220649593469
394	3074	345220650470975
392	3056	345220651313214
388	3023	345220652361980
384	3009	345220653201349
381	3002	345220653989759
380	3009	345220654820543
374	3030	345220655559722
376	3057	345220656368727
375	3083	345220657129192
371	3084	345220657914353
375	3072	345220658739321
391	3044	345220659567881
402	3019	345220660480964
407	3011	345220661325138
410	3024	345220662246794
409	3030	345220663185080
407	3037	345220663934284
402	3053	345220664758594
398	3068	345220665588599
394	3074	345220666190903
391	3068	345220667017007
388	3049	345220667823828
388	3019	345220668629958
391	3004	345220669435726
389	2997	345220670192023
384	2998	345220671013329
381	3011	345220671837770
379	3035	345220672646253
376	3071	345220673445833
376	3096	345220674207679
374	3102	345220675016445
371	3086	345220675811231
369	3060	345220676413589
366	3048	345220677250294
364	3045	345220678199413
364	3057	345220679011100
364	3070	345220679816441
373	3091	345220680565744
378	3113	345220681394999
382	3128	345220682253295
380	3129	345220683100578
380	3118	345220683926457
378	3093	345220684737956
381	3067	345220685554336
383	3057	345220686359099
379	3051	345220687194766
376	3056	345220687970353
374	3070	345220688798697
381	3094	345220689607241
385	3123	345220690478326
383	3136	345220691315516
381	3136	345220692225122
378	3118	345220693063513
374	3085	345220693887202
369	3062	345220694681252
368	3052	345220695509605
362	3057	345220696341446
360	3077	345220697181147
355	3107	345220697953258
352	3138	345220698765620
348	3161	345220699573160
346	3157	345220700477713
342	3139	345220701339058
339	3106	345220702252588
334	3093	345220703054431
333	3080	345220703841148
335	3077	345220704646072
332	3084	345220705454310
329	3111	345220706218568
334	3137	345220707023953
337	3156	345220707690952
333	3164	345220708520309
330	3158	345220709341890
326	3129	345220710187281
322	3100	345220710974375
320	3083	345220711782237
316	3075	345220712592079
317	3085	345220713432076
319	3114	345220714335705
316	3151	345220715197765
317	3173	345220716007222
313	3177	345220716820635
310	3162	345220717622750
307	3130	345220718450428
308	3109	345220719282019
306	3101	345220720110493
304	3103	345220720869797
301	3107	345220721682300
302	3119	345220722319634
299	3138	345220723185092
300	3153	345220723994683
302	3159	345220724804109
301	3156	345220725625431
299	3128	345220726435733
295	3108	345220727271472
293	3094	345220728166791
291	3083	345220728808352
290	3075	345220729619806
288	3075	345220730487683
284	3091	345220731323779
284	3118	345220732232902
281	3139	345220733090086
279	3144	345220733874235
276	3130	345220734669028
277	3105	345220735480321
278	3093	345220736286329
276	3088	345220737089102
271	3089	345220737889208
269	3097	345220738676218
270	3120	345220739455137
271	3151	345220740379928
269	3163	345220741047667
271	3164	345220741827878
274	3151	345220742632047
277	3118	345220743418096
278	3095	345220744226986
277	3088	345220745000329
274	3089	345220745799940
270	3097	345220746578827
267	3117	345220747295365
265	3136	345220748163104
263	3153	345220748855637
260	3158	345220749660468
264	3146	345220750484139
262	3121	345220751329698
263	3092	345220752251230
264	3080	345220753168858
263	3073	345220753950334
261	3075	345220754779716
258	3084	345220755585657
260	3104	345220756394233
259	3122	345220757108691
260	3127	345220757675691
260	3124	345220758476911
259	3109	345220759340869
256	3075	345220760178974
252	3047	345220761005451
250	3035	345220761813097
247	3026	345220762628515
244	3030	345220763434848
242	3046	345220764289164
239	3065	345220765126069
236	3087	345220765956249
234	3100	345220766781616
231	3104	345220767589162
229	3087	345220768396699
228	3056	345220769248621
225	3045	345220770083898
223	3040	345220770910255
222	3050	345220771710514
221	3074	345220772340326
221	3101	345220773181514
224	3130	345220774006821
228	3143	345220774788185
230	3141	345220775534596
232	3122	345220776325810
229	3092	345220777135661
232	3076	345220777910813
238	3072	345220778548229
241	3076	345220779329430
247	3094	345220780304359
255	3123	345220781045229
255	3148	345220781823522
252	3164	345220782606431
253	3168	345220783438700
256	3153	345220784274786
256	3124	345220785111957
257	3107	345220785962253
260	3101	345220786771350
265	3104	345220787578496
267	3118	345220788389747
267	3140	345220789198635
267	3162	345220790001802
266	3178	345220790864327
261	3173	345220791676977
259	3151	345220792489126
257	3117	345220793321746
255	3092	345220794168260
256	3081	345220794977847
253	3074	345220795821195
253	3073	345220796632779
253	3085	345220797330814
249	3102	345220798195645
248	3123	345220799004956
249	3133	345220799813436
244	3119	345220800634050
242	3095	345220801440152
242	3062	345220802338121
241	3042	345220803204671
240	3028	345220804007067
240	3027	345220804814596
239	3040	345220805580088
236	3063	345220806387720
236	3088	345220807222303
236	3091	345220808074116
239	3085	345220808880850
244	3066	345220809694832
247	3033	345220810536405
251	3015	345220811354184
254	3010	345220812255630
255	3003	345220813105977
260	3011	345220813916487
265	3029	345220814727791
266	3039	345220815545308
270	3042	345220816476547
271	3038	345220817315857
273	3026	345220818082623
279	2998	345220818888841
277	2976	345220819699938
285	2963	345220820521561
295	2957	345220821357049
308	2954	345220822270497
325	2973	345220823125147
340	2995	345220823929579
344	3007	345220824736373
341	3006	345220825580136
338	2988	345220826392991
336	2954	345220827229432
332	2935	345220828031468
328	2924	345220828823048
329	2918	345220829632773
328	2929	345220830488224
329	2952	345220831328713
329	2978	345220832202468
332	2988	345220833007673
332	2986	345220833822014
334	2972	345220834632995
341	2941	345220835621872
343	2931	345220836431578
339	2926	345220837073496
336	2929	345220837908977
331	2937	345220838729369
332	2958	345220839543252
329	2982	345220840487178
328	2984	345220841334563
330	2971	345220842247323
339	2948	345220843084451
342	2918	345220843887341
342	2895	345220844701066
344	2884	345220845444407
346	2882	345220846391702
352	2897	345220847230570
350	2922	345220848078883
346	2946	345220848890364
345	2958	345220849698307
343	2954	345220850511044
340	2937	345220851347924
336	2907	345220852252331
335	2897	345220853011249
330	2893	345220853817361
328	2901	345220854625421
325	2912	345220855496972
324	2935	345220856330562
322	2960	345220857170139
317	2965	345220857744326
316	2963	345220858559733
318	2949	345220859367363
330	2915	345220860441833
336	2906	345220861281307
337	2908	345220862180969
334	2915	345220863006174
328	2929	345220863812908
331	2951	345220864623662
329	2972	345220865502827
328	2985	345220866342391
327	2981	345220867170735
327	2965	345220867971839
325	2936	345220868764787
321	2923	345220869556127
316	2917	345220870489836
315	2922	345220871325026
313	2933	345220872227505
308	2960	345220873050877
307	2983	345220873729026
307	2988	345220874362877
304	2990	345220875204501
302	2979	345220876034882
299	2948	345220876730345
296	2927	345220877533734
293	2915	345220878363060
292	2914	345220879200068
293	2921	345220880024139
291	2938	345220880856405
290	2958	345220881682015
288	2974	345220882489892
287	2976	345220883321402
283	2960	345220884160458
283	2932	345220884981712
280	2911	345220885811367
284	2897	345220886627366
289	2889	345220887432550
289	2893	345220888270259
288	2909	345220888988718
287	2931	345220889732323
288	2940	345220890558324
299	2934	345220891365113
311	2919	345220892290085
317	2892	345220893118606
318	2867	345220893928539
318	2852	345220894732508
321	2843	345220895553074
327	2838	345220896364265
338	2851	345220897215103
350	2870	345220898021519
360	2884	345220898831114
366	2888	345220899630051
367	2882	345220900507035
365	2861	345220901346803
369	2832	345220902379247
374	2819	345220903225076
382	2807	345220904031512
394	2811	345220904860916
402	2824	345220905591510
407	2838	345220906404566
401	2851	345220907236838
401	2848	345220908037981
401	2845	345220908852964
402	2830	345220909683694
402	2802	345220910508434
403	2785	345220911344028
411	2781	345220912245711
425	2780	345220913059481
440	2792	345220913872269
452	2814	345220914700500
455	2830	345220915530944
453	2837	345220916217954
455	2830	345220917048113
461	2810	345220917857296
472	2784	345220918664525
483	2766	345220919465302
491	2747	345220920223551
498	2734	345220921057132
498	2733	345220921863604
497	2753	345220922662625
493	2781	345220923470407
488	2800	345220924314998
485	2807	345220925158565
482	2798	345220925827265
480	2781	345220926464797
482	2758	345220927305856
488	2740	345220928139071
495	2735	345220928973170
502	2734	345220929785158
506	2750	345220930597433
502	2775	345220931423853
503	2800	345220932377180
509	2808	345220933194965
511	2798	345220934020110
508	2777	345220934720689
506	2755	345220935543778
501	2747	345220936369508
497	2743	345220937207176
491	2745	345220938014559
489	2752	345220938846603
486	2774	345220939653845
485	2795	345220940504340
483	2800	345220941249956
480	2794	345220942045048
479	2779	345220942838766
476	2748	345220943667315
472	2730	345220944476887
470	2730	345220945250782
470	2735	345220946104203
471	2746	345220946911765
476	2766	345220947719520
474	2783	345220948543999
469	2795	345220949346210
470	2795	345220950188150
470	2781	345220951007960
469	2756	345220951818084
468	2739	345220952627983
466	2730	345220953459959
464	2732	345220954294447
465	2740	345220955134876
466	2762	345220955962940
467	2788	345220956774574
462	2803	345220957585180
456	2807	345220958494791
454	2794	345220959332794
452	2765	345220960172965
448	2742	345220961024289
442	2734	345220961839364
441	2727	345220962652352
438	2731	345220963458137
435	2748	345220964294123
428	2771	345220965135049
424	2793	345220965983938
419	2796	345220966794869
416	2785	345220967607854
413	2763	345220968407126
409	2740	345220969248626
406	2726	345220970059645
400	2719	345220970893996
396	2720	345220971712214
396	2729	345220972519133
396	2755	345220973376849
400	2773	345220974211384
399	2782	345220975014801
400	2770	345220975783191
402	2745	345220976486703
401	2727	345220977322765
395	2720	345220978189737
394	2711	345220978997415
394	2706	345220979806302
390	2719	345220980604006
389	2738	345220981421966
391	2760	345220982275411
397	2770	345220983183068
404	2766	345220983990352
412	2746	345220984737815
424	2726	345220985578263
431	2720	345220986390235
436	2719	345220987223496
443	2733	345220988048413
446	2749	345220988862276
445	2767	345220989672726
441	2782	345220990506003
444	2778	345220991339449
447	2767	345220992245265
457	2741	345220993103176
468	2719	345220993913656
474	2710	345220994726981
480	2703	345220995544379
482	2701	345220996377703
486	2714	345220997215859
481	2733	345220998042045
476	2746	345220998852682
471	2754	345220999644783
468	2747	345221000515044
467	2729	345221001353179
463	2702	345221002266824
458	2687	345221003099247
455	2676	345221003875856
453	2674	345221004688171
452	2683	345221005534814
456	2715	345221006377783
458	2749	345221007216598
459	2760	345221008018139
455	2756	345221008823860
454	2733	345221009638115
457	2706	345221010513834
456	2693	345221011352883
451	2694	345221012254161
446	2707	345221013116137
444	2723	345221013923874
444	2736	345221014752670
455	2750	345221015571741
473	2759	345221016482601
486	2750	345221017334795
492	2735	345221018124201
494	2709	345221018930656
488	2684	345221019737614
491	2671	345221020555834
493	2680	345221021386460
491	2704	345221022232963
491	2734	345221023065161
493	2761	345221023874320
505	2769	345221024682673
524	2771	345221025527219
536	2755	345221026366448
538	2727	345221027205823
540	2707	345221028008810
539	2702	345221028738178
537	2707	345221029552379
530	2732	345221030503113
523	2764	345221031343228
518	2787	345221032256041
518	2796	345221033059003
518	2788	345221033728415
518	2774	345221034540665
513	2742	345221035505891
508	2722	345221036341207
507	2712	345221037117344
506	2710	345221037952561
506	2713	345221038767867
507	2729	345221039579119
508	2753	345221040513688
506	2767	345221041351224
504	2772	345221042259200
504	2758	345221043102951
507	2731	345221043911999
510	2717	345221044723202
507	2718	345221045475886
503	2725	345221046316668
499	2741	345221047149788
494	2759	345221047970741
495	2770	345221048783970
499	2774	345221049376613
506	2769	345221050236618
511	2751	345221051063420
519	2728	345221051868984
521	2703	345221052678585
516	2690	345221053459732
510	2682	345221054218456
505	2682	345221055044046
503	2692	345221055869906
499	2715	345221056679496
497	2734	345221057483883
491	2741	345221058323115
485	2737	345221059154143
481	2716	345221059810611
476	2694	345221060636799
471	2678	345221061440782
466	2665	345221062211816
462	2656	345221063017069
457	2659	345221063828416
455	2674	345221064654974
454	2693	345221065528501
449	2709	345221066369978
443	2717	345221067222236
442	2722	345221068041919
441	2703	345221068854276
434	2679	345221069664227
433	2670	345221070623504
431	2684	345221071438308
435	2716	345221072231529
438	2750	345221073041732
437	2778	345221073852618
440	2783	345221074658137
439	2783	345221075525796
439	2766	345221076357190
436	2749	345221077118205
432	2753	345221077932188
427	2758	345221078736744
426	2751	345221079564966
424	2755	345221080519107
423	2786	345221081357584
416	2819	345221082264693
414	2834	345221083011608
410	2830	345221083822029
406	2811	345221084652978
406	2785	345221085494338
405	2774	345221086334748
401	2769	345221087166068
397	2772	345221087862655
398	2783	345221088674340
404	2808	345221089503196
407	2842	345221090468773
404	2853	345221091313277
403	2857	345221092238026
398	2843	345221093050656
396	2816	345221093733207
394	2794	345221094562274
398	2789	345221095517555
400	2799	345221096356533
411	2826	345221097216880
422	2863	345221098029095
429	2894	345221098839358
436	2915	345221099643581
436	2920	345221100519761
434	2908	345221101359052
428	2881	345221102283417
425	2880	345221103118052
422	2888	345221103921572
419	2909	345221104747153
414	2939	345221105574513
414	2977	345221106391365
411	3001	345221107225095
407	3000	345221108030577
404	2979	345221108839764
405	2948	345221109668622
402	2929	345221110599705
401	2912	345221111410991
398	2904	345221112311158
397	2908	345221113152130
394	2927	345221113890656
390	2950	345221114712708
385	2966	345221115538550
386	2970	345221116497767
385	2964	345221117364988
382	2944	345221118138924
380	2920	345221118946100
380	2905	345221119738558
376	2898	345221120562061
373	2899	345221121397725
368	2915	345221122275534
364	2943	345221123252699
363	2970	345221124069411
358	2974	345221124872341
355	2965	345221125707221
352	2940	345221126392271
354	2913	345221127287285
358	2900	345221128129103
362	2905	345221128903657
362	2910	345221129735589
360	2923	345221130562127
357	2948	345221131397696
352	2971	345221132300854
348	2981	345221133083563
344	2970	345221133892603
341	2949	345221134722662
337	2924	345221135546776
338	2910	345221136389203
340	2901	345221137224441
347	2909	345221138034217
353	2922	345221138851252
356	2939	345221139675199
366	2944	345221140520687
378	2939	345221141256754
386	2933	345221142063375
395	2916	345221142877945
399	2887	345221143686918
402	2870	345221144491903
402	2856	345221145141285
401	2849	345221145967807
399	2851	345221146728597
396	2866	345221147500066
391	2884	345221148339967
387	2897	345221149097022
387	2900	345221149907413
388	2892	345221150734550
388	2875	345221151411702
390	2846	345221152319744
390	2834	345221153161152
388	2827	345221153963995
384	2826	345221154776088
381	2837	345221155603413
380	2865	345221156426311
382	2891	345221157264336
382	2907	345221158067742
380	2914	345221158897658
376	2902	345221159706065
370	2874	345221160532004
368	2854	345221161372594
369	2851	345221162280641
368	2856	345221163088354
372	2883	345221163913005
378	2920	345221164725514
381	2950	345221165554795
382	2966	345221166387920
378	2962	345221167226662
375	2948	345221168038881
371	2918	345221168863967
368	2902	345221169673890
367	2894	345221170533325
361	2900	345221171391011
360	2914	345221172289017
362	2944	345221172968611
361	2971	345221173816943
358	2984	345221174405423
355	2990	345221175245990
351	2983	345221176088845
347	2954	345221176848261
345	2928	345221177664716
343	2921	345221178471410
343	2922	345221179306968
344	2931	345221180139998
345	2952	345221180894314
342	2968	345221181706076
342	2977	345221182625169
353	2970	345221183451839
357	2958	345221184292476
359	2951	345221185139795
358	2924	345221185992879
356	2901	345221186807863
356	2899	345221187615815
355	2901	345221188438628
353	2909	345221189279711
349	2929	345221190089840
348	2953	345221190937205
345	2969	345221191751162
344	2968	345221192562827
351	2946	345221193400844
353	2917	345221194277224
360	2901	345221195089931
365	2900	345221195935639
378	2912	345221196748795
389	2933	345221197558421
392	2956	345221198211786
391	2969	345221199020739
388	2976	345221199829870
385	2968	345221200647061
381	2949	345221201388142
382	2921	345221202294871
379	2904	345221203150292
378	2896	345221203943354
374	2902	345221204757259
373	2922	345221205578819
377	2953	345221206400347
380	2983	345221207240581
379	3002	345221208054139
377	3000	345221208866086
375	2976	345221209683371
373	2951	345221210529960
373	2947	345221211366876
374	2953	345221212269475
374	2955	345221213128495
377	2969	345221213887947
375	2981	345221214698394
371	2993	345221215531122
369	3012	345221216471977
369	3023	345221217322661
368	3014	345221218137378
367	2987	345221218949872
365	2976	345221219758165
361	2967	345221220576360
359	2969	345221221409549
355	2985	345221222267468
355	3011	345221223130138
355	3036	345221223936278
356	3042	345221224747850
356	3036	345221225594019
355	3007	345221226385929
351	2983	345221227222886
351	2963	345221228021834
355	2952	345221228752367
351	2948	345221229564475
349	2951	345221230523438
352	2963	345221231446270
353	2978	345221232328816
357	2979	345221233161534
364	2963	345221233965579
365	2935	345221234751223
368	2916	345221235589394
368	2908	345221236403832
364	2894	345221237118041
367	2883	345221237941990
375	2863	345221238770581
376	2856	345221239581120
385	2853	345221240535173
395	2850	345221241381619
404	2852	345221242287569
413	2844	345221243127221
409	2827	345221243933774
408	2799	345221244745355
408	2784	345221245568908
404	2782	345221246409245
405	2795	345221247253778
402	2819	345221248075773
398	2845	345221248876506
398	2869	345221249687357
393	2871	345221250535630
389	2859	345221251371390
394	2828	345221252277229
395	2816	345221253036918
392	2811	345221253848017
394	2819	345221254654698
393	2844	345221255544418
402	2884	345221256379333
407	2913	345221257218595
405	2920	345221258020209
400	2908	345221258814628
403	2880	345221259622843
402	2850	345221260538538
405	2831	345221261379279
407	2825	345221262287928
403	2821	345221263139075
400	2830	345221263874609
399	2844	345221264684595
396	2853	345221265551230
397	2863	345221266389912
398	2866	345221267229959
398	2857	345221268066344
404	2830	345221268881456
407	2813	345221269691404
404	2791	345221270545816
402	2784	345221271385071
404	2806	345221272255208
406	2841	345221273081264
409	2869	345221273892986
406	2870	345221274690491
406	2849	345221275543384
413	2822	345221276380337
410	2791	345221277218334
415	2771	345221278023782
422	2771	345221278834042
425	2775	345221279645762
428	2785	345221280503670
425	2807	345221281345520
421	2833	345221282248369
423	2850	345221283057293
417	2853	345221283864773
417	2842	345221284676578
418	2823	345221285437343
418	2819	345221286278208
417	2819	345221287079414
415	2837	345221287906480
416	2865	345221288718965
417	2891	345221289530096
414	2907	345221290485467
415	2901	345221291323094
410	2877	345221292229544
408	2857	345221293005169
406	2842	345221293815546
408	2815	345221294644637
412	2801	345221295555949
408	2798	345221296399835
407	2808	345221297239188
404	2845	345221298058693
402	2899	345221298867442
402	2940	345221299683602
398	2956	345221300541956
397	2942	345221301386287
403	2943	345221302336347
405	2960	345221303228974
406	2963	345221304034607
401	2974	345221304846724
402	2987	345221305517027
399	3003	345221306355473
397	3028	345221307193550
407	3022	345221307968448
414	3008	345221308786352
415	2982	345221309596867
413	2955	345221310536546
412	2925	345221311377790
413	2911	345221312286465
410	2929	345221313143923
410	2961	345221313882138
407	2975	345221314664436
404	2995	345221315551215
407	3000	345221316485871
404	2979	345221317337616
406	2950	345221318010976
409	2932	345221318820880
410	2916	345221319628423
411	2902	345221320548617
413	2907	345221321395539
412	2914	345221322259252
416	2926	345221323089587
415	2944	345221323896861
418	2958	345221324688231
429	2962	345221325547073
438	2945	345221326384731
450	2914	345221327219395
454	2892	345221328018671
452	2896	345221328826146
450	2921	345221329636948
463	2958	345221330525941
462	2968	345221331369770
459	2959	345221332282730
466	2957	345221333089123
474	2954	345221333895637
486	2937	345221334707246
485	2908	345221335548626
490	2881	345221336383143
493	2861	345221337220571
504	2855	345221338041829
506	2889	345221338882906
505	2951	345221339688533
516	2975	345221340564866
523	2954	345221341287933
530	2930	345221342096944
531	2927	345221342928203
530	2914	345221343740902
530	2907	345221344448794
527	2930	345221345124343
533	2927	345221345950973
536	2906	345221346759184
535	2899	345221347580087
530	2909	345221348413585
529	2922	345221349258077
529	2924	345221350076182
534	2916	345221350914586
538	2902	345221351727564
536	2913	345221352562030
539	2900	345221353402832
540	2897	345221354245711
550	2889	345221355048207
558	2911	345221355872547
557	2957	345221356684083
562	2982	345221357510824
564	2999	345221358197699
569	2984	345221359006878
582	2976	345221359768718
587	2978	345221360655847
586	2957	345221361471282
594	2936	345221362390367
622	2920	345221363284256
640	2924	345221363888542
654	2929	345221364650848
670	2945	345221365566382
673	2951	345221366402359
666	2938	345221367261416
661	2915	345221368010025
672	2927	345221368820045
688	2913	345221369624955
680	2898	345221370545516
686	2885	345221371388472
695	2867	345221372262133
690	2892	345221373073695
691	2919	345221373900803
689	2946	345221374705946
690	2978	345221375564901
708	2987	345221376401983
720	2990	345221377260061
733	2976	345221378069289
757	2961	345221378879582
767	2957	345221379707753
778	2990	345221380527121
778	3041	345221381375334
779	3080	345221382277905
783	3103	345221383079219
804	3084	345221383889721
833	3071	345221384722806
855	3042	345221385551951
865	3027	345221386389688
873	3000	345221387221517
886	2981	345221388042424
883	2982	345221388860586
878	2987	345221389662644
870	2982	345221390567855
868	2989	345221391404066
860	2974	345221392328936
859	2958	345221393031359
851	2944	345221393848619
848	2923	345221394656732
850	2892	345221395555572
844	2890	345221396405410
850	2897	345221397253715
858	2925	345221398064643
865	2948	345221398873342
862	2938	345221399678569
856	2944	345221400561494
867	2981	345221401403588
858	2988	345221402328553
857	3008	345221403159296
858	3051	345221403946007
850	3068	345221404778063
849	3050	345221405518726
844	3058	345221406470316
839	3069	345221407306304
837	3079	345221408088714
835	3070	345221408901213
836	3050	345221409729750
840	3040	345221410560245
846	3025	345221411391242
841	3029	345221412304352
842	3074	345221413113595
850	3098	345221413896847
841	3097	345221414700492
839	3095	345221415578432
837	3100	345221416524869
843	3088	345221417363131
842	3072	345221418005566
848	3065	345221418789668
850	3070	345221419563712
847	3052	345221420487744
847	3040	345221421296473
846	3032	345221422148865
858	3011	345221422945265
858	3006	345221423726356
861	3022	345221424518223
869	3048	345221425326148
870	3057	345221426151177
869	3031	345221426944185
878	3007	345221427724951
899	2996	345221428488733
909	3000	345221429222513
919	3010	345221430035339
934	3019	345221430863347
940	3066	345221431688999
948	3087	345221432542393
941	3085	345221433386640
931	3076	345221434227038
933	3062	345221435034174
928	3031	345221435863561
925	3001	345221436689021
921	3005	345221437499393
913	3033	345221438341080
913	3065	345221439227971
920	3100	345221440042720
923	3120	345221440876530
946	3126	345221441702382
951	3100	345221442518613
947	3082	345221443354513
949	3052	345221444209310
962	3035	345221445018048
954	3017	345221445728808
947	2998	345221446535209
948	2998	345221447287045
946	3027	345221448092040
947	3075	345221448929296
947	3098	345221449715115
939	3073	345221450562991
938	3046	345221451397365
935	3014	345221452306036
930	2985	345221453116015
926	2958	345221453942421
921	2958	345221454757018
921	2969	345221455538404
922	2992	345221456397598
922	3027	345221457235227
921	3052	345221458043675
917	3064	345221458871419
915	3058	345221459680528
907	3027	345221460568849
907	3005	345221461331136
911	3008	345221462339804
901	3018	345221463187065
900	3043	345221463911221
895	3059	345221464764002
892	3074	345221465588445
893	3083	345221466425255
886	3075	345221467260700
882	3052	345221468039402
893	3036	345221468801449
899	3035	345221469613821
901	3038	345221470561836
906	3041	345221471412523
904	3041	345221472289183
908	3049	345221473097569
907	3081	345221473727984
907	3096	345221474544088
898	3077	345221475490246
907	3049	345221476315355
901	3025	345221477125340
897	3017	345221477934697
898	3018	345221478494618
895	3018	345221479331460
895	3024	345221480168784
895	3067	345221480994111
886	3086	345221481732746
887	3100	345221482545373
888	3105	345221483397588
882	3088	345221484240945
886	3069	345221484926353
885	3039	345221485775912
886	3013	345221486583051
893	3019	345221487420622
904	3046	345221488326629
909	3072	345221489223346
919	3092	345221490029071
919	3096	345221490872218
914	3092	345221491678655
903	3083	345221492487819
908	3059	345221493265826
908	3028	345221494072725
921	3011	345221494886606
928	3004	345221495727527
937	3001	345221496538534
950	3009	345221497386344
951	3039	345221498242462
954	3052	345221499049294
953	3058	345221499860645
953	3050	345221500706419
952	3031	345221501411385
958	3001	345221502318928
962	2984	345221503095888
965	2975	345221503884703
982	2979	345221504693360
991	2998	345221505530799
1008	3025	345221506376926
1016	3043	345221507210473
1010	3041	345221508016061
1001	3023	345221508825290
1007	2994	345221509635612
1008	2959	345221510568823
1017	2947	345221511408664
1027	2940	345221512318240
1031	2935	345221513143014
1048	2948	345221513911973
1054	2967	345221514717614
1062	2980	345221515575058
1063	2982	345221516257212
1056	2974	345221517069204
1053	2954	345221517901849
1046	2926	345221518730030
1047	2914	345221519541709
1048	2904	345221520161178
1064	2902	345221520989216
1092	2913	345221521805098
1130	2927	345221522617801
1168	2950	345221523441411
1179	2968	345221524281844
1194	2973	345221525040700
1184	2963	345221525876937
1183	2932	345221526686678
1182	2909	345221527513233
1197	2898	345221528348966
1208	2896	345221529184443
1227	2905	345221529988856
1254	2928	345221530818154
1259	2956	345221531629742
1273	2978	345221532494667
1272	2987	345221533334099
1272	2981	345221534182840
1278	2957	345221534985980
1267	2938	345221535814353
1260	2933	345221536622913
1253	2937	345221537448980
1245	2947	345221538363804
1239	2958	345221539210221
1239	2984	345221540035154
1234	2988	345221540864946
1223	2984	345221541675549
1212	2970	345221542495087
1212	2939	345221543325476
1211	2909	345221544132278
1218	2891	345221544963094
1217	2878	345221545787161
1207	2870	345221546595528
1202	2871	345221547422959
1202	2882	345221548259868
1200	2893	345221549069895
1214	2897	345221549718338
1222	2892	345221550577208
1217	2881	345221551404494
1220	2849	345221552369056
1216	2826	345221553214838
1219	2811	345221554028794
1221	2805	345221554832438
1215	2813	345221555534908
1218	2837	345221556381418
1217	2867	345221557241467
1208	2878	345221558056308
1200	2873	345221558868895
1215	2850	345221559676453
1227	2819	345221560547714
1244	2802	345221561393371
1256	2792	345221562324009
1260	2788	345221563131522
1269	2800	345221563923330
1262	2822	345221564747930
1255	2847	345221565573740
1251	2863	345221566390428
1241	2869	345221567228552
1233	2863	345221568012108
1239	2836	345221568804431
1265	2819	345221569628086
1310	2809	345221570571396
1353	2801	345221571415008
1369	2806	345221572175037
1381	2826	345221572982374
1381	2853	345221573733147
1374	2869	345221574578357
1366	2874	345221575502825
1384	2858	345221576344645
1401	2828	345221577194939
1434	2803	345221577990683
1470	2791	345221578778170
1501	2789	345221579606203
1548	2812	345221580552835
1576	2841	345221581405920
1598	2873	345221582171256
1613	2884	345221582985045
1614	2875	345221583796229
1608	2851	345221584625527
1603	2825	345221585582379
1609	2818	345221586424804
1629	2818	345221587260445
1660	2828	345221588074234
1678	2847	345221588893549
1701	2883	345221589718056
1709	2912	345221590593446
1707	2920	345221591402096
1705	2914	345221592330597
1695	2887	345221593053319
1697	2878	345221593861611
1684	2883	345221594672843
1673	2892	345221595582417
1656	2895	345221596410860
1651	2907	345221597179994
1638	2923	345221597985836
1625	2940	345221598799812
1623	2949	345221599603985
1602	2947	345221600557979
1597	2944	345221601408014
1581	2916	345221602332480
1576	2896	345221603170466
1567	2892	345221603977365
1555	2898	345221604802037
1547	2912	345221605525616
1550	2933	345221606168260
1542	2946	345221606969446
1536	2948	345221607663742
1523	2946	345221608470978
1523	2932	345221609333807
1530	2903	345221610115986
1527	2873	345221610951254
1523	2855	345221611766865
1511	2844	345221612583192
1511	2844	345221613426241
1523	2861	345221614178510
1528	2876	345221614986595
1539	2896	345221615808954
1527	2908	345221616641367
1513	2902	345221617451195
1503	2880	345221618290980
1494	2857	345221619119141
1484	2850	345221619924741
1479	2851	345221620749809
1481	2862	345221621513278
1477	2879	345221622432644
1485	2915	345221623417101
1476	2931	345221624280393
1477	2933	345221625090514
1468	2921	345221625927223
1459	2895	345221626733085
1444	2868	345221627540174
1439	2859	345221628377774
1429	2856	345221629140971
1414	2861	345221629948113
1407	2879	345221630795189
1401	2904	345221631628655
1392	2924	345221632510209
1388	2924	345221633352678
1400	2912	345221634194643
1413	2893	345221634999980
1424	2864	345221635825783
1417	2840	345221636659503
1405	2819	345221637477959
1394	2805	345221638381074
1396	2805	345221639193194
1396	2828	345221640002689
1417	2844	345221640827669
1429	2850	345221641653334
1448	2842	345221642496584
1477	2824	345221643329553
1501	2795	345221644180601
1532	2781	345221644989873
1541	2774	345221645812032
1547	2772	345221646616292
1557	2778	345221647455534
1549	2793	345221648291611
1534	2804	345221649120501
1535	2803	345221649928256
1537	2791	345221650750724
1534	2766	345221651430840
1540	2746	345221652377642
1536	2737	345221653216315
1536	2730	345221654040159
1533	2735	345221654851116
1526	2747	345221655558578
1531	2772	345221656412280
1530	2799	345221657251106
1523	2809	345221658060097
1521	2803	345221658865144
1513	2778	345221659674392
1513	2765	345221660588640
1503	2769	345221661442984
1491	2771	345221662330090
1476	2772	345221663138448
1467	2782	345221663914848
1453	2800	345221664729532
1439	2823	345221665604009
1430	2837	345221666448993
1416	2840	345221667285875
1414	2834	345221668067228
1403	2805	345221668828088
1395	2789	345221669633805
1389	2780	345221670575147
1375	2787	345221671432755
1371	2807	345221672186175
1359	2836	345221672997684
1348	2869	345221673802936
1343	2885	345221674608064
1327	2891	345221675528621
1325	2878	345221676388141
1312	2852	345221677224261
1301	2834	345221678035079
1295	2828	345221678836343
1283	2826	345221679648619
1275	2838	345221680556200
1263	2857	345221681416912
1252	2881	345221682332149
1243	2897	345221683118934
1230	2897	345221683950461
1222	2887	345221684688121
1220	2859	345221685573600
1213	2841	345221686499975
1205	2830	345221687342145
1193	2832	345221688184961
1187	2844	345221688795141
1184	2863	345221689608705
1173	2891	345221690574082
1167	2904	345221691409919
1156	2906	345221692318537
1150	2885	345221693064428
1142	2862	345221693727408
1136	2854	345221694540089
1141	2855	345221695188536
1132	2850	345221696038111
1124	2847	345221696850105
1119	2857	345221697628450
1107	2870	345221698456480
1100	2881	345221699297229
1101	2882	345221700105869
1109	2878	345221700953892
1121	2864	345221701766277
1136	2838	345221702577843
1137	2824	345221703410573
1136	2811	345221704240584
1125	2803	345221705046165
1124	2812	345221705888999
1115	2842	345221706698636
1110	2865	345221707508946
1101	2872	345221708362334
1101	2861	345221709197714
1114	2832	345221710010328
1122	2807	345221710861509
1134	2796	345221711668112
1131	2793	345221712511604
1133	2800	345221713342551
1146	2821	345221714152901
1150	2840	345221714961905
1151	2853	345221715809491
1143	2853	345221716615712
1134	2837	345221717443727
1130	2813	345221718067058
1123	2797	345221718879048
1114	2784	345221719686225
1109	2781	345221720601211
1106	2789	345221721445520
1103	2798	345221722192068
1105	2815	345221723024740
1101	2832	345221723832417
1100	2837	345221724643155
1107	2837	345221725505350
1105	2823	345221726315812
1109	2795	345221727126359
1109	2778	345221727935695
1105	2775	345221728745252
1101	2781	345221729552504
1095	2798	345221730528815
1086	2824	345221731365304
1080	2846	345221732306653
1079	2867	345221733068254
1072	2868	345221733880702
1069	2857	345221734678701
1058	2827	345221735605668
1051	2814	345221736414610
1045	2811	345221737252486
1036	2813	345221738075755
1038	2823	345221738806240
1028	2846	345221739615124
1025	2883	345221740564882
1027	2898	345221741409835
1030	2900	345221742413806
1034	2879	345221743056934
1029	2857	345221743864515
1023	2835	345221744674266
1023	2827	345221745570994
1020	2826	345221746410071
1023	2838	345221747180286
1014	2858	345221748002078
1004	2883	345221748812070
1001	2908	345221749626709
989	2913	345221750591537
987	2907	345221751318319
980	2883	345221752124524
972	2864	345221752935082
970	2853	345221753731883
975	2855	345221754543443
973	2865	345221755400991
981	2889	345221756262313
982	2915	345221757073233
978	2928	345221757880049
971	2933	345221758692068
966	2921	345221759510628
959	2892	345221760366649
947	2872	345221761225079
945	2865	345221761831028
939	2862	345221762662634
933	2868	345221763478624
929	2885	345221764283867
923	2905	345221765039420
921	2920	345221765869619
937	2923	345221766676569
944	2910	345221767506579
945	2885	345221768338791
946	2861	345221769145750
944	2845	345221769950289
936	2839	345221770774358
927	2844	345221771585393
926	2860	345221772496789
925	2888	345221773336386
943	2907	345221774151645
955	2916	345221774974834
973	2911	345221775766841
989	2884	345221776575254
990	2860	345221777438977
996	2859	345221778278156
987	2865	345221779088590
978	2876	345221779895911
972	2889	345221780560716
969	2905	345221781407832
964	2922	345221782333465
966	2926	345221783146869
972	2918	345221783960096
979	2888	345221785114003
990	2860	345221785735326
987	2847	345221786551061
996	2839	345221787414424
1000	2841	345221788240582
995	2850	345221789052578
991	2873	345221789876509
987	2892	345221790705507
982	2900	345221791519000
976	2894	345221792410094
975	2873	345221793076358
971	2848	345221793886757
972	2830	345221794692196
982	2823	345221795606664
989	2817	345221796470053
1002	2821	345221797196965
1003	2833	345221798000896
1012	2845	345221798833046
1020	2855	345221799636742
1014	2844	345221800595805
1014	2825	345221801328617
1011	2799	345221802150721
1016	2779	345221802968259
1016	2764	345221803774292
1023	2753	345221804599810
1020	2751	345221805454513
1027	2764	345221806303863
1028	2783	345221807109771
1020	2798	345221807923046
1009	2804	345221808738564
1008	2795	345221809568238
1001	2766	345221810409446
995	2752	345221811331061
992	2754	345221812140497
983	2757	345221812957875
986	2768	345221813732566
980	2783	345221814556674
981	2798	345221815396762
987	2807	345221816326285
977	2801	345221817159313
970	2787	345221817964684
974	2759	345221818772272
980	2736	345221819573814
981	2720	345221820416345
981	2715	345221821257555
976	2722	345221822084991
977	2744	345221822910836
973	2771	345221823720970
968	2782	345221824337856
963	2787	345221825145830
956	2779	345221825973693
950	2756	345221826794290
941	2729	345221827602024
939	2719	345221828435823
930	2714	345221829200502
926	2718	345221830008979
926	2733	345221830848506
919	2755	345221831678875
912	2777	345221832527989
907	2781	345221833380925
899	2769	345221834135840
897	2749	345221834726047
902	2732	345221835620492
900	2727	345221836477210
899	2732	345221837106083
899	2739	345221837924915
895	2758	345221838734605
892	2778	345221839547155
889	2790	345221840511573
882	2777	345221841376426
886	2749	345221842286173
904	2725	345221843101151
911	2710	345221843927313
921	2700	345221844737801
918	2688	345221845618864
910	2676	345221846478249
910	2679	345221847235282
904	2695	345221848040886
901	2714	345221848838648
902	2725	345221849647449
898	2719	345221850603038
893	2703	345221851336647
889	2681	345221852141477
880	2667	345221852953820
875	2659	345221853732659
871	2663	345221854601663
865	2677	345221855565802
874	2703	345221856363810
877	2725	345221857125773
873	2737	345221857937631
867	2742	345221858770976
863	2731	345221859571519
856	2707	345221860415642
849	2685	345221861272011
850	2675	345221862080282
844	2673	345221862898733
842	2688	345221863728300
835	2717	345221864540687
827	2748	345221865386431
826	2771	345221866241399
822	2777	345221867047449
817	2773	345221867859548
813	2747	345221868681938
806	2726	345221869463215
807	2712	345221870426093
803	2715	345221871267229
803	2723	345221872048198
798	2743	345221872669127
791	2765	345221873541925
787	2781	345221874313943
784	2791	345221875091512
776	2789	345221875906462
773	2769	345221876537700
770	2747	345221877352117
767	2727	345221878131779
763	2720	345221878906170
755	2719	345221879688454
753	2734	345221880560068
746	2760	345221881383800
738	2787	345221882258711
736	2803	345221883048655
734	2804	345221883835213
729	2793	345221884641356
731	2761	345221885607276
727	2746	345221886453039
720	2733	345221887276930
715	2732	345221888117143
711	2738	345221888821250
704	2756	345221889637653
700	2778	345221890617872
694	2786	345221891499017
689	2781	345221892410387
690	2762	345221893091967
690	2740	345221893899089
698	2719	345221894708510
707	2710	345221895600260
710	2703	345221896436350
719	2710	345221897180009
718	2729	345221898002697
718	2757	345221898790354
724	2777	345221899594947
729	2774	345221900570267
730	2755	345221901344212
736	2732	345221902160989
744	2714	345221902977652
753	2700	345221903785350
762	2699	345221904594686
770	2707	345221905580105
788	2726	345221906421998
796	2743	345221907253543
801	2753	345221908085111
804	2756	345221908901879
800	2743	345221909711314
796	2712	345221910718578
793	2699	345221911503353
787	2692	345221912381009
779	2692	345221913207297
779	2707	345221913818261
777	2725	345221914597537
783	2760	345221915520647
793	2781	345221916263709
802	2781	345221917042934
817	2769	345221917877442
826	2745	345221918688905
829	2729	345221919501589
827	2723	345221920335961
819	2729	345221921172578
813	2737	345221921992301
808	2754	345221922827984
806	2777	345221923640181
802	2789	345221924474194
803	2795	345221925335070
797	2781	345221926170840
791	2752	345221926985961
790	2734	345221927794062
798	2728	345221928449686
797	2725	345221929285115
799	2728	345221930117046
802	2744	345221930916666
804	2765	345221931727285
811	2788	345221932572397
803	2793	345221933417001
798	2785	345221934253867
792	2766	345221935079497
788	2744	345221935907836
789	2736	345221936700587
798	2732	345221937524428
805	2735	345221938365381
811	2751	345221939173896
830	2784	345221940004192
847	2811	345221940833713
862	2826	345221941647790
862	2825	345221942538387
854	2799	345221943375741
847	2779	345221944213984
839	2780	345221945044328
834	2789	345221945872562
830	2804	345221946690448
837	2832	345221947493787
851	2867	345221948332898
877	2892	345221949142768
897	2894	345221949970301
912	2879	345221950795822
927	2854	345221951604347
933	2834	345221952515864
929	2826	345221953356512
930	2829	345221954172100
932	2835	345221954976227
928	2846	345221955800964
928	2869	345221956609437
927	2886	345221957465556
928	2891	345221958314990
924	2887	345221959124740
919	2866	345221959704758
921	2843	345221960624401
921	2830	345221961467659
917	2829	345221962393935
906	2834	345221963230698
910	2848	345221963829586
911	2861	345221964591404
914	2880	345221965552714
921	2891	345221966504067
922	2881	345221967375053
922	2860	345221968276531
913	2835	345221969087981
903	2824	345221969715748
900	2821	345221970627200
895	2825	345221971466822
889	2837	345221972201529
892	2852	345221973012507
896	2873	345221973826963
898	2875	345221974630125
899	2864	345221975586016
895	2836	345221976330289
889	2811	345221977151365
880	2793	345221977913006
874	2784	345221978719761
873	2774	345221979547548
878	2778	345221980387711
877	2795	345221981220297
880	2816	345221982021851
882	2832	345221982825896
872	2829	345221983643730
865	2818	345221984495392
856	2797	345221985341165
849	2767	345221986172972
842	2752	345221986975752
835	2749	345221987836514
828	2757	345221988647238
822	2779	345221989464621
818	2806	345221990194449
822	2823	345221990984802
826	2837	345221991816491
838	2834	345221992633898
849	2818	345221993471255
849	2793	345221994306860
842	2793	345221995083366
850	2800	345221995913756
852	2807	345221996743936
850	2824	345221997491700
854	2845	345221998380929
852	2865	345221999188093
850	2869	345221999999752
846	2861	345222000829198
839	2850	345222001662614
834	2819	345222002550547
825	2797	345222003389759
819	2792	345222004247624
812	2796	345222005059256
808	2812	345222005714247
805	2834	345222006546427
811	2859	345222007386403
820	2872	345222008218941
827	2875	345222009027034
832	2860	345222009729171
824	2832	345222010634855
816	2814	345222011497866
807	2804	345222012401943
799	2803	345222013237282
798	2819	345222013834254
790	2837	345222014646923
788	2866	345222015600194
799	2871	345222016315971
808	2864	345222017125934
819	2845	345222017937991
832	2816	345222018760907
832	2796	345222019568491
826	2778	345222020408957
821	2767	345222021273044
824	2767	345222022083217
822	2787	345222022920213
820	2812	345222023727299
818	2821	345222024532744
828	2820	345222025507492
855	2804	345222026352399
874	2780	345222027163876
897	2759	345222027976775
907	2755	345222028727474
903	2758	345222029541642
894	2769	345222030380477
896	2785	345222031307202
914	2806	345222032116938
935	2819	345222032934502
955	2815	345222033717132
966	2803	345222034531315
977	2773	345222035372876
975	2753	345222036224818
968	2740	345222036986991
958	2742	345222037797209
952	2750	345222038632135
944	2770	345222039472852
942	2797	345222040318005
953	2817	345222040969424
967	2822	345222041715930
978	2812	345222042552451
982	2782	345222043408669
978	2761	345222044241932
968	2747	345222045034529
972	2739	345222045884374
976	2745	345222046694640
976	2766	345222047502031
979	2788	345222048361813
978	2812	345222049170449
971	2826	345222049952438
960	2828	345222050779206
954	2815	345222051379998
951	2792	345222052185298
943	2772	345222053018817
939	2760	345222053830817
937	2763	345222054648278
947	2776	345222055478988
951	2800	345222056322186
956	2830	345222057130865
954	2847	345222057961945
947	2852	345222058770406
951	2845	345222059577379
942	2828	345222060430723
933	2801	345222061271641
928	2790	345222062077971
924	2792	345222062911180
919	2808	345222063716878
924	2831	345222064524491
931	2864	345222065357681
929	2892	345222065987981
923	2899	345222066801815
915	2893	345222067632161
914	2872	345222068445223
908	2847	345222069278472
900	2833	345222070081096
890	2829	345222070912532
883	2834	345222071718311
878	2847	345222072560496
869	2873	345222073406077
861	2892	345222074232276
856	2903	345222075056987
847	2897	345222075887397
840	2866	345222076903531
830	2842	345222077734343
829	2836	345222078467512
832	2829	345222079313858
836	2830	345222080118368
836	2842	345222080936485
836	2863	345222081746502
840	2881	345222082587766
844	2881	345222083428191
854	2865	345222084144133
857	2841	345222084994049
852	2821	345222085824349
849	2808	345222086639287
845	2801	345222087489760
849	2794	345222088454063
868	2796	345222089300494
890	2807	345222090128825
906	2816	345222090960079
912	2820	345222091770453
903	2811	345222092577274
899	2787	345222093242861
903	2765	345222094049547
914	2745	345222094872499
916	2734	345222095699175
923	2723	345222096512805
943	2723	345222097218869
967	2734	345222098026176
1008	2750	345222098835415
1028	2758	345222099666196
1023	2756	345222100625965
1029	2757	345222101359813
1042	2740	345222102189007
1066	2715	345222103001504
1091	2698	345222103808871
1106	2690	345222104638379
1107	2694	345222105460051
1108	2713	345222106273888
1104	2743	345222107095255
1098	2761	345222107904895
1092	2767	345222108716778
1084	2757	345222109544738
1080	2730	345222110395647
1089	2710	345222111261600
1100	2703	345222112067135
1113	2698	345222112883836
1133	2707	345222113696780
1145	2724	345222114524548
1153	2746	345222115365509
1149	2757	345222115982424
1154	2758	345222116816080
1161	2756	345222117628403
1179	2742	345222118441291
1197	2714	345222119268914
1199	2696	345222120077177
1195	2693	345222120903110
1186	2700	345222121718160
1178	2718	345222122610509
1167	2751	345222123537407
1157	2767	345222124242035
1148	2769	345222125055946
1141	2762	345222125886724
1134	2739	345222126716098
1122	2712	345222127529033
1119	2702	345222128348955
1109	2697	345222129169159
1098	2698	345222129943743
1090	2711	345222130771604
1080	2730	345222131614109
1074	2750	345222132512441
1069	2755	345222133349366
1060	2744	345222134174861
1051	2726	345222134997539
1040	2699	345222135824327
1033	2678	345222136654824
1022	2665	345222137461477
1012	2662	345222138359848
1011	2670	345222139165745
1016	2691	345222139975837
1029	2713	345222140772312
1035	2731	345222141599570
1049	2738	345222142497345
1060	2724	345222143339516
1063	2697	345222144167898
1059	2686	345222144978195
1056	2684	345222145716625
1058	2684	345222146542073
1054	2702	345222147375639
1048	2727	345222148190655
1046	2751	345222149023610
1048	2762	345222149837655
1046	2757	345222150666268
1050	2740	345222151355972
1065	2717	345222152168546
1082	2699	345222152978567
1094	2680	345222153714384
1094	2672	345222154527846
1086	2672	345222155368473
1077	2691	345222156329502
1070	2718	345222157141885
1073	2734	345222157952658
1074	2742	345222158785991
1086	2733	345222159593484
1106	2706	345222160416807
1138	2686	345222161280379
1154	2675	345222162087433
1147	2659	345222162902419
1137	2658	345222163740816
1130	2668	345222164548862
1131	2686	345222165384491
1135	2705	345222166245687
1138	2708	345222167057646
1133	2705	345222167866920
1136	2690	345222168696587
1134	2661	345222169519672
1125	2639	345222170365030
1114	2626	345222171239765
1106	2624	345222172048414
1095	2636	345222172867357
1083	2663	345222173674704
1084	2685	345222174510056
1091	2697	345222175347421
1100	2689	345222176209105
1090	2668	345222177021469
1076	2642	345222177938929
1073	2631	345222178744578
1073	2628	345222179546690
1070	2641	345222180400297
1062	2664	345222181268007
1054	2690	345222182078735
1057	2707	345222182904703
1071	2707	345222183733185
1080	2697	345222184540211
1100	2672	345222185384487
1116	2652	345222186206982
1116	2638	345222186982075
1119	2634	345222187791879
1109	2640	345222188624293
1098	2661	345222189446429
1096	2689	345222190195785
1101	2706	345222190859786
1107	2715	345222191672038
1120	2717	345222192565917
1131	2704	345222193253722
1140	2681	345222194067056
1157	2661	345222194875588
1163	2648	345222195716226
1162	2644	345222196529610
1164	2658	345222197376375
1155	2679	345222198205812
1144	2707	345222199015020
1140	2728	345222199826102
1143	2736	345222200648540
1142	2727	345222201356869
1146	2703	345222202167936
1157	2686	345222203007515
1170	2676	345222203792552
1178	2674	345222204603565
1173	2675	345222205442364
1171	2690	345222206301554
1162	2710	345222207111478
1156	2717	345222207937067
1144	2720	345222208748043
1149	2706	345222209557943
1150	2679	345222210415780
1156	2653	345222211268298
1161	2638	345222212077220
1157	2627	345222212913442
1147	2629	345222213715803
1146	2639	345222214527494
1141	2658	345222215411982
1131	2675	345222216328216
1120	2679	345222217149332
1112	2680	345222217984411
1103	2662	345222218797442
1095	2639	345222219609019
1088	2631	345222220435728
1094	2637	345222221291283
1101	2647	345222222107292
1108	2671	345222222944835
1101	2697	345222223757710
1092	2704	345222224566473
1083	2698	345222225422095
1084	2675	345222226285037
1084	2648	345222227105866
1085	2631	345222227911402
1081	2624	345222228717398
1076	2616	345222229526701
1071	2618	345222230388481
1060	2630	345222231212545
1055	2650	345222232025981
1054	2666	345222232849988
1055	2666	345222233662778
1048	2655	345222234498427
1040	2630	345222235353662
1043	2605	345222236177108
1060	2587	345222236985849
1077	2584	345222237716830
1092	2586	345222238559299
1088	2604	345222239393387
1077	2634	345222240197138
1069	2658	345222240862697
1069	2671	345222241678101
1072	2677	345222242582610
1068	2661	345222243418791
1057	2636	345222244254777
1051	2625	345222245057782
1041	2620	345222245724869
1035	2625	345222246643488
1033	2644	345222247503053
1028	2664	345222248339790
1028	2685	345222249151443
1022	2690	345222249979329
1012	2682	345222250774985
1010	2669	345222251335696
1016	2647	345222252135883
1027	2620	345222252928872
1041	2593	345222253713061
1056	2576	345222254494178
1074	2574	345222255302716
1105	2591	345222256102082
1130	2617	345222256903574
1141	2633	345222257581564
1148	2643	345222258394065
1142	2641	345222259169107
1137	2618	345222259952564
1150	2594	345222260749325
1179	2580	345222261551239
1213	2570	345222262426612
1262	2566	345222263237010
1317	2575	345222263831464
1351	2584	345222264648391
1383	2604	345222265611336
1376	2613	345222266467825
1379	2609	345222267306432
1386	2593	345222267960444
1396	2570	345222268785879
1410	2550	345222269596592
1421	2539	345222270558957
1426	2544	345222271421169
1424	2552	345222272112186
1429	2572	345222272924782
1430	2597	345222273731821
1426	2606	345222274540687
1415	2602	345222275383974
1402	2582	345222276265379
1387	2555	345222277069721
1377	2537	345222277855806
1373	2534	345222278660632
1365	2533	345222279501016
1365	2538	345222280348722
1361	2550	345222281112637
1356	2563	345222281923940
1350	2575	345222282612490
1336	2576	345222283473964
1330	2569	345222284311242
1326	2557	345222285121303
1321	2531	345222285960919
1313	2514	345222286739312
1300	2508	345222287546228
1299	2512	345222288401201
1300	2521	345222289107497
1294	2541	345222289918020
1293	2560	345222290743866
1285	2572	345222291523044
1277	2573	345222292400003
1274	2560	345222293225942
1263	2533	345222294006098
1253	2517	345222294784684
1247	2507	345222295640419
1246	2504	345222296476664
1239	2515	345222297117026
1232	2530	345222297944329
1226	2551	345222298753285
1225	2565	345222299563607
1230	2569	345222300417340
1225	2573	345222301285043
1217	2563	345222302092919
1208	2538	345222302919723
1204	2522	345222303731473
1206	2523	345222304548816
1201	2537	345222305414964
1192	2561	345222306273831
1188	2596	345222307081146
1183	2619	345222307886762
1174	2630	345222308695666
1167	2620	345222309527759
1155	2592	345222310385665
1146	2575	345222311192466
1139	2571	345222311998203
1133	2569	345222312833426
1122	2577	345222313639518
1120	2596	345222314476224
1114	2622	345222315306379
1105	2644	345222316135733
1096	2644	345222316925470
1088	2638	345222317755756
1078	2623	345222318569043
1067	2596	345222319398671
1064	2583	345222320117059
1057	2584	345222320952893
1050	2590	345222321766241
1043	2601	345222322637435
1032	2625	345222323475460
1022	2643	345222324242730
1026	2654	345222325067295
1032	2652	345222325896162
1034	2636	345222326705824
1035	2611	345222327538345
1032	2595	345222328366315
1035	2589	345222329175358
1040	2586	345222329982596
1040	2595	345222330809154
1033	2609	345222331621154
1024	2628	345222332542830
1016	2642	345222333428945
1008	2646	345222334274741
1001	2634	345222335103301
992	2614	345222335932017
998	2604	345222336746541
996	2603	345222337574661
998	2599	345222338419025
997	2597	345222339212401
988	2610	345222340043969
978	2631	345222340874505
971	2641	345222341684941
959	2636	345222342582023
959	2615	345222343418325
958	2588	345222344223767
958	2574	345222344997596
968	2565	345222345825158
974	2563	345222346639821
964	2573	345222347473281
953	2588	345222348308953
945	2610	345222349119864
940	2623	345222349944850
935	2625	345222350770139
927	2619	345222351584246
921	2591	345222352500214
951	2575	345222353340835
987	2563	345222354157777
998	2561	345222354957127
996	2570	345222355779265
987	2598	345222356591391
982	2623	345222357439977
975	2635	345222358379896
965	2638	345222359195640
960	2625	345222360000054
953	2597	345222360829642
944	2587	345222361642414
939	2583	345222362552078
935	2591	345222363427768
932	2608	345222364267839
934	2629	345222365099991
937	2651	345222365877991
955	2661	345222366689447
978	2659	345222367513783
991	2649	345222368363392
987	2621	345222369172345
985	2602	345222369998034
990	2598	345222370825452
996	2606	345222371633987
1002	2618	345222372521099
1019	2639	345222373376942
1053	2659	345222374198305
1068	2676	345222375022692
1075	2686	345222375852599
1075	2678	345222376661304
1078	2653	345222377479677
1072	2638	345222378301661
1064	2628	345222379113095
1052	2624	345222379920123
1045	2638	345222380755789
1042	2665	345222381574729
1046	2698	345222382501681
1035	2705	345222383340881
1024	2699	345222384146540
1017	2681	345222384871987
1016	2657	345222385700236
1016	2635	345222386541834
1018	2618	345222387394135
1013	2608	345222388201105
1010	2602	345222389012530
1017	2615	345222389716765
1024	2635	345222390668308
1027	2649	345222391507599
1031	2652	345222392452060
1036	2631	345222393241952
1036	2604	345222394050320
1029	2584	345222394881800
1018	2570	345222395712839
1009	2564	345222396543213
1003	2573	345222397379873
1000	2594	345222398192916
994	2619	345222399007699
994	2635	345222399835068
1000	2642	345222400663954
1002	2633	345222401497402
992	2605	345222402420379
985	2589	345222403232496
987	2583	345222404039166
1007	2586	345222404869451
1035	2592	345222405515735
1045	2609	345222406357503
1040	2636	345222407134531
1034	2653	345222407933086
1034	2662	345222408739574
1030	2654	345222409569514
1022	2631	345222410411432
1011	2609	345222411239015
1002	2605	345222412042698
996	2604	345222412857244
991	2614	345222413672060
985	2642	345222414636105
980	2669	345222415484512
977	2685	345222416357932
992	2671	345222417191565
1007	2651	345222418004712
1033	2623	345222418813757
1054	2601	345222419615792
1069	2580	345222420449433
1072	2574	345222421316286
1064	2576	345222422129993
1056	2591	345222422955573
1052	2611	345222423768053
1066	2629	345222424569301
1099	2640	345222425411927
1136	2639	345222426238224
1150	2625	345222427061031
1152	2600	345222427870178
1148	2588	345222428677275
1135	2584	345222429501254
1137	2591	345222430357059
1140	2608	345222431189094
1135	2634	345222431994721
1129	2656	345222432746871
1117	2666	345222433558720
1107	2669	345222434415743
1097	2655	345222435220358
1086	2629	345222436088710
1080	2615	345222436918795
1076	2612	345222437688147
1075	2616	345222438556013
1092	2631	345222439377425
1114	2656	345222440150573
1130	2671	345222440851496
1144	2679	345222441653196
1153	2674	345222442518097
1147	2658	345222443382393
1138	2632	345222444163395
1140	2612	345222444946669
1137	2596	345222445747614
1137	2588	345222446554849
1155	2596	345222447364785
1180	2615	345222448141359
1201	2646	345222448869960
1199	2669	345222449653305
1202	2678	345222450579150
1199	2672	345222451257114
1200	2652	345222452065605
1200	2633	345222452882527
1189	2618	345222453690369
1181	2616	345222454520653
1181	2625	345222455363268
1197	2648	345222456208814
1216	2675	345222457027192
1223	2694	345222457840848
1225	2707	345222458672525
1218	2704	345222459506299
1212	2690	345222460312998
1199	2663	345222461155796
1195	2656	345222461760536
1191	2659	345222462608165
1202	2674	345222463469047
1217	2699	345222464300275
1223	2734	345222465111867
1214	2768	345222465884881
1211	2784	345222466696762
1202	2779	345222467528309
1194	2758	345222468388306
1184	2739	345222469196109
1176	2730	345222470010859
1174	2728	345222470863165
1184	2730	345222471679956
1199	2740	345222472576410
1214	2761	345222473437255
1218	2776	345222474243502
1212	2781	345222475049838
1204	2775	345222475870880
1206	2757	345222476678221
1220	2728	345222477510705
1246	2708	345222478370959
1267	2694	345222479173328
1278	2685	345222479984436
1283	2693	345222480746268
1280	2705	345222481560091
1268	2719	345222482465004
1267	2721	345222483316215
1270	2715	345222484125455
1274	2701	345222484938528
1282	2675	345222485792160
1281	2656	345222486604614
1297	2644	345222487419562
1310	2637	345222488199774
1313	2639	345222489002383
1329	2663	345222489812393
1348	2693	345222490687005
1350	2698	345222491528821
1338	2678	345222492446836
1347	2660	345222493302149
1352	2648	345222494114358
1375	2638	345222494925866
1404	2623	345222495769928
1429	2619	345222496579930
1449	2625	345222497383357
1462	2640	345222498214801
1465	2657	345222499024493
1459	2666	345222499831029
1458	2662	345222500691735
1463	2649	345222501530730
1473	2619	345222502480596
1473	2603	345222503386250
1479	2599	345222504200945
1477	2607	345222505014594
1478	2626	345222505856712
1489	2656	345222506667608
1486	2683	345222507503225
1476	2690	345222508355921
1465	2685	345222509164291
1458	2667	345222509939288
1452	2640	345222510787039
1438	2628	345222511612255
1432	2625	345222512515357
1421	2634	345222513274789
1409	2647	345222514087321
1395	2661	345222514898148
1388	2679	345222515714212
1384	2692	345222516665488
1374	2694	345222517499202
1375	2685	345222518347512
1383	2657	345222519160533
1399	2639	345222519971197
1395	2632	345222520734442
1387	2635	345222521557038
1398	2649	345222522465813
1420	2681	345222523334846
1422	2707	345222524144707
1412	2723	345222524957144
1404	2721	345222525717560
1419	2701	345222526674295
1445	2673	345222527521777
1467	2655	345222528383681
1465	2651	345222529193616
1457	2653	345222530011423
1449	2667	345222530856074
1437	2685	345222531642147
1423	2706	345222532513960
1411	2716	345222533377912
1402	2709	345222534194114
1393	2691	345222535004951
1384	2669	345222535843596
1375	2656	345222536666567
1382	2657	345222537503762
1390	2669	345222538337383
1407	2678	345222539149408
1428	2692	345222539959694
1437	2702	345222540808200
1442	2713	345222541625634
1442	2704	345222542525084
1437	2681	345222543344315
1425	2659	345222544154153
1414	2654	345222544964786
1406	2658	345222545805377
1416	2670	345222546564060
1434	2686	345222547463428
1440	2699	345222548309647
1446	2712	345222549118117
1435	2711	345222549932146
1434	2697	345222550778770
1443	2677	345222551570841
1446	2647	345222552456595
1434	2624	345222553314001
1432	2609	345222554124978
1437	2601	345222554931603
1431	2601	345222555768307
1420	2623	345222556579809
1434	2652	345222557417541
1456	2668	345222558239702
