212	2617	343204813061878
212	2608	343204813851044
210	2583	343204814662458
206	2563	343204815520490
205	2555	343204816342509
206	2560	343204817157088
209	2577	343204817982280
214	2598	343204818794131
217	2619	343204819602250
219	2630	343204820460767
219	2631	343204821079125
218	2626	343204821894124
216	2602	343204822625674
214	2577	343204823532155
211	2560	343204824334016
211	2556	343204825168485
211	2565	343204825980659
214	2585	343204826787680
218	2606	343204827729329
220	2621	343204828568071
225	2632	343204829383444
225	2630	343204830212991
226	2612	343204831006009
225	2587	343204831839567
222	2565	343204832594007
221	2559	343204833508565
223	2568	343204834344573
225	2588	343204835122429
225	2606	343204835928956
224	2622	343204836746417
221	2632	343204837697332
219	2633	343204838534210
216	2620	343204839366626
214	2593	343204840140049
211	2573	343204840950063
210	2568	343204841753110
207	2583	343204842724039
202	2618	343204843497411
202	2643	343204844297656
201	2668	343204845079484
201	2680	343204845888260
200	2675	343204846694056
198	2647	343204847625010
195	2623	343204848446242
194	2612	343204849251447
193	2609	343204850049811
191	2622	343204850852503
189	2642	343204851658445
186	2661	343204852489985
185	2671	343204853411685
183	2670	343204854240401
181	2662	343204855065383
180	2645	343204855871557
179	2617	343204856676998
176	2593	343204857539226
175	2582	343204858398067
172	2586	343204859203810
172	2599	343204860025473
172	2614	343204860811941
171	2629	343204861546102
169	2644	343204862238140
168	2656	343204863061268
167	2655	343204863872730
167	2634	343204864696301
164	2609	343204865543389
163	2597	343204866375800
162	2597	343204867175518
161	2613	343204868002368
160	2631	343204868744709
159	2649	343204869596157
157	2662	343204870480283
154	2666	343204871288868
155	2656	343204872085553
155	2631	343204872868034
157	2600	343204873754436
160	2585	343204874647516
163	2584	343204875487994
170	2598	343204876298015
174	2615	343204876873119
176	2630	343204877809398
175	2640	343204878619671
173	2644	343204879471141
173	2640	343204880275190
170	2623	343204880988248
170	2599	343204881801237
170	2580	343204882731192
171	2576	343204883673580
171	2589	343204884518043
173	2607	343204885124705
175	2624	343204885927635
177	2643	343204886726540
178	2657	343204887788247
177	2650	343204888636304
175	2630	343204889378710
174	2605	343204890184800
171	2588	343204890986463
170	2582	343204891786887
171	2591	343204892612717
169	2607	343204893515195
167	2623	343204894347039
166	2643	343204895152064
164	2660	343204895968467
165	2662	343204896796071
162	2642	343204897613267
162	2618	343204898455149
160	2591	343204899256512
158	2577	343204899972595
157	2586	343204900786595
157	2608	343204901612163
154	2632	343204902448827
154	2653	343204903277813
151	2671	343204904100630
149	2673	343204904912516
152	2656	343204905722228
158	2629	343204906573071
163	2618	343204907412333
165	2617	343204908082271
169	2624	343204908890249
171	2644	343204909703044
174	2663	343204910531333
175	2678	343204911377163
176	2684	343204912179765
173	2678	343204913003840
171	2663	343204913806309
170	2632	343204914650998
169	2607	343204915495526
168	2595	343204916340133
171	2593	343204917144955
174	2609	343204917967731
176	2628	343204918765943
178	2650	343204919596903
179	2665	343204920433582
178	2670	343204921077335
178	2662	343204921884941
174	2639	343204922606747
174	2612	343204923552036
172	2593	343204924383561
170	2586	343204925167795
170	2592	343204925966452
170	2606	343204926730207
170	2626	343204927671586
169	2645	343204928525528
170	2660	343204929257151
170	2660	343204930066328
169	2644	343204930865483
169	2617	343204931670871
171	2595	343204932499296
170	2583	343204933441667
170	2589	343204934253245
168	2604	343204935059770
168	2623	343204935864752
165	2638	343204936677884
163	2649	343204937475756
162	2647	343204938349733
162	2624	343204939155414
163	2599	343204939959545
162	2580	343204940719735
164	2569	343204941356958
166	2571	343204942158757
170	2581	343204942998971
172	2602	343204943831111
175	2621	343204944635337
177	2633	343204945396908
176	2627	343204946205957
174	2613	343204947019729
174	2586	343204947877652
175	2562	343204948687878
176	2548	343204949519901
178	2546	343204950344963
180	2552	343204951154543
178	2564	343204951740037
178	2581	343204952715271
177	2604	343204953582468
177	2614	343204954422695
176	2609	343204955223794
174	2587	343204956007401
173	2561	343204956816990
175	2539	343204957749462
179	2540	343204958585209
183	2558	343204959421818
185	2581	343204960114231
186	2601	343204960924894
188	2624	343204961734592
190	2644	343204962701323
193	2644	343204963598256
193	2624	343204964234513
193	2604	343204965042472
193	2587	343204965852066
192	2584	343204966652029
192	2596	343204967500381
193	2615	343204968328824
196	2636	343204969134728
198	2655	343204969933031
200	2663	343204970518063
201	2660	343204971345485
199	2643	343204972165021
197	2613	343204972987548
196	2592	343204973808609
195	2576	343204974648674
194	2580	343204975478172
195	2596	343204976281311
196	2615	343204977099202
197	2631	343204977925904
198	2643	343204978739164
198	2642	343204979568477
197	2628	343204980403501
195	2601	343204980972241
192	2585	343204981796319
190	2567	343204982741024
188	2564	343204983681956
188	2578	343204984512071
190	2597	343204985350933
190	2614	343204986161299
190	2625	343204986989752
192	2629	343204987813693
193	2621	343204988621843
190	2599	343204989236785
188	2580	343204990041669
187	2564	343204990849690
184	2557	343204991668987
183	2571	343204992637398
184	2598	343204993504820
187	2625	343204994309268
189	2634	343204995113242
188	2631	343204995912924
187	2615	343204996739356
186	2590	343204997614565
185	2565	343204998453767
182	2545	343204999242030
181	2533	343205000066793
180	2531	343205000869986
177	2543	343205001548874
176	2563	343205002381790
174	2591	343205003203569
172	2607	343205003867480
170	2611	343205004672971
169	2603	343205005503993
167	2579	343205006357065
165	2553	343205007130175
163	2546	343205007959531
164	2558	343205008722276
167	2583	343205009564078
171	2614	343205010391715
175	2638	343205011215917
178	2650	343205012023087
182	2648	343205012850715
185	2634	343205013670402
185	2605	343205014506904
185	2579	343205015308860
183	2566	343205016131739
181	2568	343205016962380
179	2582	343205017791745
181	2604	343205018490383
181	2621	343205019292353
181	2635	343205020099942
180	2641	343205020918333
179	2639	343205021556274
178	2628	343205022391075
177	2603	343205023209132
174	2583	343205024021078
172	2576	343205024739830
172	2580	343205025586856
172	2597	343205026419110
175	2624	343205027220634
176	2647	343205028035654
179	2663	343205028818624
179	2667	343205029558206
178	2659	343205030405117
177	2634	343205031013538
174	2612	343205031819082
172	2592	343205032578039
173	2590	343205033495111
175	2604	343205034301936
179	2627	343205035112654
182	2650	343205035921699
183	2667	343205036735183
184	2674	343205037639327
183	2667	343205038480962
182	2639	343205039245705
179	2615	343205040046065
179	2597	343205040824356
180	2590	343205041627950
182	2599	343205042481028
185	2614	343205043304983
188	2631	343205044121928
190	2644	343205044920766
191	2650	343205045507459
191	2648	343205046311384
189	2633	343205047133584
187	2606	343205047955827
186	2583	343205048771014
185	2566	343205049495407
185	2562	343205050294414
186	2570	343205051109400
185	2581	343205051743368
185	2592	343205052553002
184	2601	343205053458879
182	2607	343205054261885
180	2605	343205055044086
179	2591	343205055871682
179	2564	343205056673546
178	2546	343205057511522
177	2540	343205058369520
178	2545	343205059195335
180	2560	343205060002012
182	2578	343205060815585
184	2596	343205061618393
187	2605	343205062246857
188	2608	343205063067613
186	2595	343205063889221
185	2573	343205064670366
183	2546	343205065502354
181	2533	343205066297186
179	2538	343205067104825
178	2555	343205067930848
176	2580	343205068740307
177	2602	343205069577316
178	2615	343205070403074
179	2617	343205071214210
181	2604	343205072026225
182	2577	343205072858237
180	2552	343205073691598
178	2541	343205074532598
180	2547	343205075362783
184	2563	343205076124375
189	2579	343205076755794
192	2595	343205077792698
196	2608	343205078631922
199	2613	343205079466375
201	2604	343205080268965
201	2577	343205080996493
202	2554	343205081802147
200	2536	343205082748688
198	2532	343205083712768
198	2538	343205084547293
198	2549	343205085384825
197	2564	343205086187439
199	2576	343205086993492
199	2584	343205087821403
200	2579	343205088650083
197	2558	343205089494016
194	2533	343205090265773
192	2518	343205091063611
190	2511	343205091880010
190	2519	343205092776488
194	2546	343205093755666
195	2568	343205094591480
195	2582	343205095427323
194	2585	343205096188100
193	2578	343205096995147
195	2561	343205097618471
197	2540	343205098466475
199	2524	343205099280602
201	2524	343205099991249
204	2534	343205100791718
205	2557	343205101628303
206	2579	343205102462932
207	2594	343205103302555
204	2598	343205104116311
204	2589	343205104922992
204	2568	343205105721059
206	2540	343205106551748
207	2527	343205107382636
213	2522	343205108237335
221	2528	343205109044356
230	2542	343205109848793
235	2556	343205110647065
242	2571	343205111481487
246	2576	343205112235617
244	2578	343205113058033
242	2572	343205113869914
240	2556	343205114673390
237	2530	343205115517265
235	2520	343205116167322
234	2523	343205116975510
235	2539	343205117794111
238	2563	343205118500453
239	2580	343205119301986
242	2596	343205120127061
241	2605	343205120933781
241	2601	343205121572067
238	2587	343205122396109
235	2559	343205123221652
233	2535	343205124047352
232	2525	343205124754456
231	2528	343205125587454
232	2544	343205126419924
231	2567	343205127242908
230	2585	343205128070548
229	2602	343205128872547
229	2607	343205129560454
228	2599	343205130385561
226	2574	343205131179806
225	2548	343205132011166
225	2536	343205132836518
225	2535	343205133686120
228	2554	343205134509263
232	2574	343205135125331
234	2590	343205135932707
235	2604	343205136764638
234	2604	343205137706429
231	2591	343205138541385
229	2572	343205139252157
227	2549	343205140055116
226	2531	343205140830451
227	2524	343205141546820
228	2528	343205142386590
232	2545	343205143214525
234	2563	343205143975720
236	2578	343205144787767
240	2593	343205145514684
241	2598	343205146361179
243	2589	343205147158880
242	2568	343205147984109
240	2543	343205148790709
237	2530	343205149630829
237	2536	343205150468077
236	2559	343205151290022
236	2584	343205152017106
235	2607	343205152843009
234	2622	343205153686894
232	2621	343205154581788
231	2603	343205155415680
231	2576	343205156237781
229	2555	343205157045113
227	2546	343205157873823
228	2551	343205158675024
230	2567	343205159505550
231	2584	343205160148014
232	2601	343205160968700
231	2619	343205161772670
232	2629	343205162713375
228	2621	343205163595508
226	2599	343205164251558
223	2578	343205165065240
222	2563	343205165894476
220	2560	343205166699920
217	2579	343205167773017
217	2600	343205168607820
217	2620	343205169444965
215	2635	343205170254098
214	2641	343205171071605
211	2632	343205171890005
208	2614	343205172635080
207	2586	343205173551151
205	2571	343205174480093
205	2570	343205175294516
207	2588	343205176120820
210	2608	343205176761050
210	2630	343205177813325
211	2645	343205178642785
211	2652	343205179474735
211	2646	343205180277252
209	2625	343205180886866
208	2604	343205181548448
206	2586	343205182382430
207	2581	343205183008568
207	2587	343205183828084
210	2605	343205184647545
212	2624	343205185499263
214	2642	343205186308879
214	2657	343205187119946
211	2658	343205187942492
210	2647	343205188756352
207	2622	343205189495779
207	2598	343205190318580
206	2587	343205191123212
205	2589	343205191928552
207	2600	343205192688494
209	2615	343205193382420
210	2629	343205194191241
208	2645	343205195019521
206	2652	343205195822980
205	2645	343205196645404
201	2626	343205197405771
200	2601	343205198232151
198	2574	343205199038105
197	2562	343205199642357
194	2565	343205200469622
193	2582	343205201273344
193	2597	343205202068473
193	2614	343205202880278
192	2625	343205203696558
190	2626	343205204522527
188	2618	343205205288582
188	2597	343205205885565
191	2576	343205206708348
193	2560	343205207541725
196	2555	343205208252736
195	2562	343205209056202
193	2583	343205209861337
196	2609	343205210665453
197	2632	343205211514807
195	2641	343205212128327
196	2640	343205212954315
195	2623	343205213560032
194	2604	343205214262173
193	2583	343205215064156
190	2565	343205215882800
189	2564	343205216634022
188	2576	343205217473618
191	2601	343205218293574
191	2624	343205219099220
192	2645	343205219904586
194	2659	343205220508344
195	2659	343205221201045
199	2650	343205221977273
203	2628	343205222635758
202	2607	343205223651114
200	2597	343205224481884
198	2605	343205225313795
198	2626	343205226124134
203	2654	343205226767165
208	2673	343205227747829
212	2686	343205228575668
217	2692	343205229409180
218	2683	343205230209212
219	2660	343205230887440
217	2638	343205231695082
216	2623	343205232544619
214	2618	343205233491715
213	2628	343205234307149
213	2638	343205235102463
212	2652	343205235905687
214	2668	343205236714436
213	2678	343205237574511
210	2672	343205238427915
209	2652	343205239231941
207	2623	343205240036174
206	2605	343205240844002
209	2598	343205241649834
212	2606	343205242504255
215	2623	343205243327224
217	2639	343205244141263
220	2651	343205244945065
220	2657	343205245533550
221	2654	343205246337452
218	2641	343205247161128
221	2616	343205247980997
225	2590	343205248789729
227	2577	343205249615144
229	2579	343205250456999
231	2588	343205251262873
235	2600	343205252084013
234	2614	343205252910717
232	2624	343205253719445
229	2630	343205254561481
228	2622	343205255391449
228	2596	343205256197910
230	2571	343205257019747
233	2557	343205257838867
235	2558	343205258648097
241	2571	343205259475866
243	2593	343205260135312
246	2607	343205260939391
246	2618	343205261555952
246	2621	343205262544155
243	2613	343205263460759
241	2590	343205264262019
241	2562	343205265070528
238	2541	343205265874433
236	2536	343205266691136
238	2547	343205267523749
241	2566	343205268359543
244	2587	343205269162165
246	2601	343205269968863
247	2609	343205270771117
246	2605	343205271616039
245	2588	343205272453659
242	2560	343205273277559
241	2541	343205274080926
243	2535	343205274885413
242	2537	343205275689967
241	2552	343205276538559
241	2574	343205277343858
242	2597	343205278179274
245	2609	343205278892514
244	2613	343205279772893
243	2609	343205280608103
241	2593	343205281464418
246	2569	343205282274361
251	2565	343205283016827
253	2576	343205283830234
257	2599	343205284655779
255	2618	343205285538826
253	2634	343205286391956
252	2640	343205287147958
251	2642	343205287970520
252	2628	343205288780022
255	2602	343205289614066
260	2579	343205290444267
266	2563	343205291261205
273	2563	343205292069777
280	2579	343205292899242
287	2596	343205293708411
292	2612	343205294542881
293	2624	343205295317626
291	2627	343205296125777
288	2617	343205296932509
286	2592	343205297645810
288	2569	343205298499758
292	2555	343205299303626
296	2552	343205300083605
300	2561	343205300889505
302	2580	343205301552577
305	2597	343205302387601
309	2616	343205303234255
314	2623	343205303894378
319	2620	343205304704993
321	2599	343205305545869
321	2575	343205306324278
321	2551	343205307123716
317	2537	343205307976543
315	2539	343205308773590
314	2554	343205309609652
316	2575	343205310440734
316	2599	343205311248447
319	2613	343205312061351
320	2614	343205312883464
319	2602	343205313717357
317	2577	343205314554423
317	2553	343205315404750
317	2543	343205316210762
315	2544	343205317020288
312	2558	343205317837338
310	2574	343205318654994
305	2587	343205319494681
304	2596	343205320318516
302	2595	343205321122699
300	2586	343205321995243
298	2568	343205322654421
295	2545	343205323558250
291	2530	343205324387195
293	2527	343205325211831
292	2534	343205326017309
295	2551	343205326771423
295	2571	343205327722867
291	2589	343205328559839
290	2600	343205329335345
291	2596	343205330161102
290	2583	343205330906242
287	2560	343205331710650
287	2540	343205332470789
291	2540	343205333289144
298	2553	343205334110449
302	2575	343205334937885
303	2595	343205335777586
300	2608	343205336616615
305	2617	343205337429930
310	2615	343205338258939
316	2603	343205339062040
321	2582	343205339862778
329	2557	343205340669642
338	2545	343205341400475
348	2555	343205342223833
361	2580	343205343047802
370	2612	343205343839776
375	2632	343205344659870
380	2643	343205345496405
382	2643	343205346303518
380	2626	343205347130345
383	2599	343205347952290
399	2576	343205348764524
426	2564	343205349589258
451	2566	343205350420110
469	2582	343205351220320
478	2603	343205352044177
484	2622	343205352870454
482	2633	343205353776258
478	2635	343205354613125
473	2625	343205355443766
473	2599	343205356141142
469	2578	343205356964545
469	2569	343205357798294
475	2568	343205358639035
490	2581	343205359522156
503	2603	343205360337836
516	2625	343205361148333
524	2644	343205361968989
531	2651	343205362794757
542	2643	343205363684347
550	2622	343205364520412
549	2597	343205365257793
544	2590	343205366065361
538	2593	343205366866370
536	2610	343205367781361
543	2627	343205368400331
550	2634	343205369221356
559	2646	343205370028241
565	2652	343205370831012
572	2651	343205371655761
583	2636	343205372499134
586	2607	343205373323440
586	2588	343205374165387
587	2588	343205374976588
585	2599	343205375778742
581	2624	343205376620940
582	2648	343205377804343
597	2673	343205378655351
612	2680	343205379490923
621	2667	343205380293204
629	2641	343205380904523
639	2622	343205381722733
654	2606	343205382554743
660	2606	343205383480232
655	2623	343205384294257
646	2644	343205385030160
642	2664	343205385839501
636	2679	343205386660188
629	2686	343205387496120
621	2679	343205388294407
614	2662	343205389096987
610	2631	343205389948572
606	2612	343205390759325
605	2603	343205391717835
600	2613	343205392562912
598	2628	343205393437048
600	2646	343205394252105
605	2660	343205395058429
606	2665	343205395861431
606	2657	343205396689978
605	2640	343205397532888
598	2616	343205398357599
597	2590	343205399157061
599	2574	343205399960348
604	2576	343205400773079
606	2595	343205401623195
607	2622	343205402469814
607	2650	343205403291638
608	2666	343205404097091
609	2669	343205404905292
612	2655	343205405547791
610	2633	343205406339339
606	2608	343205407146019
602	2597	343205407941108
601	2604	343205408755397
600	2626	343205409594197
603	2649	343205410418339
601	2670	343205411242402
598	2683	343205412050416
593	2683	343205412867932
588	2667	343205413551505
587	2647	343205414282935
588	2623	343205415090632
591	2610	343205415929445
595	2610	343205416714824
601	2624	343205417559096
609	2643	343205418403964
615	2663	343205419210170
621	2678	343205420017781
623	2682	343205420816499
628	2668	343205421556774
629	2644	343205422358851
628	2617	343205423180705
622	2600	343205423990046
619	2593	343205424656878
623	2604	343205425511494
634	2623	343205426313802
649	2644	343205427116946
664	2667	343205427934570
678	2677	343205428749192
691	2676	343205429591613
697	2661	343205430440674
699	2637	343205431240087
698	2609	343205432050568
692	2597	343205432869497
686	2603	343205433721878
686	2625	343205434554817
692	2651	343205435402010
696	2675	343205436201800
698	2696	343205437015145
701	2703	343205437827640
698	2694	343205438663279
692	2668	343205439550539
685	2642	343205440406411
679	2631	343205441078930
675	2634	343205441886571
673	2652	343205442797857
675	2681	343205443677339
671	2703	343205444505517
665	2715	343205445329882
665	2719	343205446137108
668	2708	343205446942944
669	2681	343205447915371
668	2653	343205448726429
669	2636	343205449569337
668	2633	343205450400852
665	2642	343205451206497
659	2659	343205451798729
653	2675	343205452633541
649	2686	343205453547885
646	2688	343205454352072
640	2681	343205455152849
635	2663	343205455926750
629	2638	343205456736261
622	2616	343205457601667
618	2605	343205458458563
614	2614	343205459265094
607	2631	343205460047512
602	2654	343205460860392
594	2667	343205461670602
590	2675	343205462524809
593	2672	343205463348931
593	2657	343205464169628
590	2631	343205464977077
589	2613	343205465783981
592	2607	343205466618249
604	2614	343205467476687
622	2631	343205468305381
636	2651	343205469077504
644	2664	343205469881074
651	2673	343205470552675
650	2671	343205471356855
645	2655	343205472183376
645	2630	343205472990364
653	2607	343205473795870
666	2595	343205474656670
680	2597	343205475495792
700	2616	343205476300823
718	2646	343205477075943
734	2665	343205477901084
746	2675	343205478717427
758	2672	343205479546262
765	2658	343205480356621
767	2630	343205480945694
764	2616	343205481773023
756	2605	343205482609880
754	2606	343205483543672
755	2622	343205484355349
754	2635	343205485039672
751	2642	343205485848196
747	2649	343205486673303
742	2653	343205487509626
738	2647	343205488334685
731	2631	343205489135914
723	2601	343205489943002
715	2578	343205490747905
709	2570	343205491564211
703	2575	343205492338651
698	2589	343205493134032
692	2606	343205493910075
689	2620	343205494686646
689	2626	343205495490094
693	2623	343205496258397
703	2619	343205497026577
715	2606	343205497820506
722	2582	343205498651049
721	2560	343205499459362
713	2552	343205500235900
707	2560	343205501009412
699	2577	343205501772970
692	2593	343205502576584
687	2607	343205503585551
679	2607	343205504406842
675	2594	343205505188226
676	2575	343205505887415
681	2551	343205506695278
685	2527	343205507535499
693	2514	343205508263047
700	2513	343205509070167
705	2523	343205509877634
708	2543	343205510673153
714	2561	343205511516443
712	2574	343205512168508
707	2572	343205513014420
708	2563	343205513817189
719	2536	343205514661834
728	2516	343205515487639
737	2508	343205516293982
749	2506	343205517102194
769	2516	343205517948550
788	2528	343205518750562
795	2543	343205519583043
792	2553	343205520407423
787	2558	343205521212502
790	2551	343205522017828
800	2528	343205522857425
811	2503	343205523737403
826	2494	343205524576965
843	2504	343205525412341
864	2531	343205526222349
885	2561	343205526809062
906	2578	343205527785115
919	2588	343205528627167
926	2585	343205529465253
925	2567	343205530268400
922	2543	343205530896363
917	2523	343205531673438
909	2507	343205532486299
908	2505	343205533277841
915	2518	343205534060306
923	2540	343205534827865
935	2565	343205535624822
946	2587	343205536462513
954	2604	343205537139542
959	2609	343205537932503
958	2605	343205538704615
951	2587	343205539509325
948	2562	343205540283438
962	2551	343205541059648
973	2554	343205541831161
977	2578	343205542755445
970	2612	343205543640509
963	2640	343205544469609
964	2659	343205545276403
969	2665	343205546051918
975	2653	343205546850586
983	2623	343205547805609
988	2600	343205548645353
994	2590	343205549501940
994	2589	343205550317979
989	2597	343205551126056
982	2608	343205551792369
979	2615	343205552713402
978	2630	343205553598563
970	2639	343205554401299
962	2636	343205555176304
955	2621	343205555887846
952	2595	343205556684250
948	2579	343205557494868
940	2576	343205558289468
932	2590	343205559059882
929	2611	343205559854275
925	2629	343205560659757
922	2641	343205561517516
914	2647	343205562177493
908	2642	343205563002570
899	2627	343205563807809
894	2600	343205564414092
897	2583	343205565219011
897	2569	343205566042081
900	2567	343205566850564
900	2576	343205567813084
897	2591	343205568645592
897	2607	343205569485245
898	2617	343205570289888
895	2617	343205571109535
886	2611	343205571917800
880	2591	343205572824477
872	2562	343205573721799
869	2550	343205574559339
867	2559	343205575366324
868	2576	343205576192734
872	2602	343205576999002
876	2622	343205577879460
875	2629	343205578673509
867	2626	343205579506256
863	2612	343205580305038
866	2585	343205580923144
869	2566	343205581557682
873	2548	343205582361303
875	2531	343205583247034
874	2531	343205584066936
874	2544	343205584873165
872	2562	343205585689773
866	2575	343205586520076
858	2584	343205587170835
851	2583	343205588011410
849	2570	343205588822617
856	2546	343205589635612
864	2522	343205590463861
877	2508	343205591265611
883	2508	343205592071782
888	2520	343205592914488
894	2543	343205593790832
900	2564	343205594634495
907	2577	343205595426132
909	2577	343205596232937
906	2562	343205597046421
903	2536	343205597887410
899	2516	343205598697188
890	2497	343205599584455
881	2493	343205600417072
874	2507	343205601077772
872	2525	343205601683297
883	2546	343205602699921
911	2559	343205603625287
933	2559	343205604452220
949	2546	343205605255408
958	2524	343205605931210
964	2503	343205606735925
969	2485	343205607586455
969	2483	343205608380295
958	2497	343205609077873
953	2522	343205609888026
948	2553	343205610695249
949	2579	343205611531008
956	2592	343205612178792
964	2592	343205613007523
973	2581	343205613817518
977	2554	343205614646112
985	2532	343205615602012
996	2524	343205616298810
1001	2532	343205617078844
1005	2554	343205617907335
1004	2577	343205618705078
999	2597	343205619564889
992	2606	343205620371118
984	2608	343205621176107
979	2599	343205621977748
978	2579	343205622835964
976	2549	343205623812070
971	2536	343205624679280
965	2538	343205625587639
954	2552	343205626400599
945	2571	343205627208631
934	2588	343205628034682
925	2604	343205628795855
916	2607	343205629625375
906	2598	343205630458080
898	2575	343205631257051
890	2549	343205632092509
888	2536	343205632919593
893	2537	343205633746423
912	2552	343205634575126
930	2573	343205635377008
944	2590	343205636190219
955	2601	343205636998162
968	2605	343205637831180
975	2594	343205638659094
973	2572	343205639485743
963	2547	343205640290916
961	2539	343205641077844
960	2545	343205641881024
966	2566	343205642821716
985	2596	343205643713574
1010	2613	343205644558118
1032	2615	343205645363075
1053	2613	343205646168973
1069	2597	343205646970828
1082	2575	343205647833205
1094	2547	343205648664944
1104	2524	343205649570608
1104	2524	343205650381868
1094	2544	343205651187274
1087	2570	343205651986450
1085	2595	343205652812699
1082	2612	343205653708240
1075	2620	343205654539625
1065	2611	343205655316577
1056	2587	343205655930105
1050	2568	343205656762087
1042	2550	343205657725506
1034	2544	343205658563165
1024	2551	343205659362664
1013	2566	343205660052153
1007	2580	343205660827446
1002	2594	343205661541567
1000	2598	343205662185119
1000	2599	343205663008476
1005	2588	343205663817750
1011	2573	343205664701669
1021	2546	343205665551260
1028	2529	343205666310138
1025	2527	343205667110621
1018	2536	343205667938029
1007	2559	343205668657219
999	2581	343205669494573
993	2598	343205670299873
992	2602	343205671095217
994	2591	343205671920443
1003	2562	343205672816730
1016	2542	343205673710919
1031	2533	343205674549142
1040	2537	343205675354892
1046	2549	343205676095346
1044	2561	343205676696223
1039	2571	343205677493757
1032	2578	343205678334556
1026	2584	343205679142938
1019	2578	343205679950902
1015	2557	343205680760327
1013	2528	343205681601759
1016	2510	343205682444191
1015	2504	343205683294652
1014	2505	343205684117633
1013	2515	343205684932614
1009	2531	343205685739195
1006	2548	343205686576633
1006	2556	343205687183929
1003	2555	343205687955564
994	2543	343205688687341
987	2518	343205689511596
981	2496	343205690308235
972	2484	343205691116368
964	2486	343205691914855
963	2501	343205692819783
968	2520	343205693694610
971	2529	343205694528500
972	2533	343205695325816
972	2533	343205696134047
971	2524	343205696941423
973	2506	343205697833496
978	2481	343205698667193
982	2466	343205699500315
982	2464	343205700305208
975	2479	343205701077468
968	2498	343205701693409
961	2517	343205702549085
951	2538	343205703371517
942	2551	343205704186992
936	2546	343205704986894
930	2526	343205705792479
927	2501	343205706625601
921	2483	343205707640038
909	2474	343205708488440
902	2481	343205709078753
897	2490	343205709879568
888	2504	343205710700481
882	2517	343205711582263
881	2523	343205712456020
874	2521	343205713279823
866	2508	343205714091332
858	2484	343205714890064
850	2458	343205715706533
840	2441	343205716561578
833	2438	343205717385413
826	2450	343205718208533
817	2463	343205719009853
807	2478	343205719819905
800	2487	343205720438981
793	2487	343205721248516
785	2478	343205722072569
784	2456	343205722893338
787	2433	343205723762492
784	2418	343205724519745
778	2416	343205725332663
772	2426	343205726139714
771	2447	343205726964166
771	2467	343205727947596
775	2480	343205728768091
776	2482	343205729581978
773	2469	343205730382973
770	2444	343205730968673
768	2428	343205731802985
767	2419	343205732639000
766	2416	343205733539385
764	2426	343205734344161
761	2441	343205735065977
755	2458	343205735870713
747	2477	343205736698866
740	2488	343205737543889
737	2488	343205738367576
730	2474	343205739168149
723	2450	343205739974054
724	2435	343205740789927
731	2430	343205741570823
737	2438	343205742376429
739	2465	343205743202908
739	2490	343205744008646
736	2513	343205744820831
729	2526	343205745444596
724	2526	343205746243815
720	2519	343205747050143
714	2498	343205747874466
712	2473	343205748711859
709	2461	343205749552754
707	2464	343205750358082
700	2478	343205751161433
698	2498	343205751969499
701	2522	343205752848428
706	2544	343205753760233
707	2550	343205754595714
704	2544	343205755426941
704	2525	343205756188025
703	2498	343205756998082
695	2477	343205757847441
689	2471	343205758678479
683	2484	343205759517904
681	2505	343205760321342
678	2527	343205761079327
673	2543	343205761890440
668	2553	343205762835075
663	2550	343205763722758
658	2533	343205764433410
652	2512	343205765240885
650	2491	343205766067741
652	2486	343205766870760
651	2504	343205767822507
644	2523	343205768441006
641	2537	343205769077404
639	2550	343205769887301
637	2561	343205770732181
632	2561	343205771568027
625	2548	343205772374111
618	2527	343205773198728
611	2501	343205774010061
605	2493	343205774700345
600	2499	343205775549585
596	2518	343205776357229
594	2544	343205777136289
588	2571	343205777956392
582	2590	343205778763306
581	2589	343205779593346
582	2574	343205780491509
582	2546	343205781081150
582	2531	343205781890317
579	2513	343205782833442
572	2514	343205783878452
565	2534	343205784735605
563	2557	343205785589065
559	2576	343205786391671
555	2586	343205787073771
550	2589	343205787895931
545	2579	343205788715664
542	2552	343205789435151
541	2532	343205790260210
535	2521	343205791069863
539	2523	343205791871358
540	2539	343205792824197
544	2559	343205793725065
551	2578	343205794561728
552	2592	343205795385820
547	2601	343205796204855
549	2593	343205797016316
553	2572	343205797842592
558	2548	343205798677805
561	2541	343205799513509
557	2545	343205800315389
551	2560	343205801078073
547	2582	343205801700147
546	2603	343205802726939
552	2614	343205803641066
566	2610	343205804480578
578	2593	343205805285660
589	2574	343205806092772
598	2548	343205806903521
602	2525	343205807842604
602	2520	343205808681183
605	2532	343205809518248
609	2553	343205810341914
619	2573	343205811150729
626	2590	343205811957574
628	2604	343205812718204
624	2600	343205813626679
619	2581	343205814512228
619	2557	343205815335866
621	2552	343205816139839
625	2559	343205816945635
635	2578	343205817854382
648	2601	343205818686049
660	2623	343205819516908
673	2635	343205820338894
689	2631	343205821145939
700	2606	343205821951766
706	2578	343205822845558
713	2559	343205823735390
713	2548	343205824574816
707	2550	343205825377948
701	2563	343205826188414
698	2582	343205826996428
696	2599	343205827847151
695	2609	343205828674045
698	2611	343205829520856
703	2599	343205830319250
711	2576	343205831128419
720	2552	343205831904489
723	2536	343205832848266
718	2535	343205833717616
711	2552	343205834556414
705	2575	343205835357028
703	2599	343205836166752
698	2613	343205837031804
691	2612	343205837853478
684	2600	343205838686949
676	2573	343205839644640
668	2548	343205840507416
661	2537	343205841315603
655	2537	343205842125691
653	2553	343205842946497
658	2582	343205843828891
665	2602	343205844665528
668	2621	343205845457360
672	2624	343205846265181
677	2612	343205847070108
685	2588	343205847887744
700	2561	343205848723290
711	2550	343205849565086
714	2549	343205850368971
710	2558	343205851179925
705	2574	343205851979970
711	2592	343205852824888
721	2606	343205853551099
731	2610	343205854369123
745	2602	343205855168967
764	2578	343205855831258
777	2554	343205856668601
788	2533	343205857538272
796	2526	343205858364377
808	2534	343205859173606
818	2547	343205859969595
819	2563	343205860788603
813	2574	343205861626569
811	2580	343205862477194
812	2573	343205863304142
811	2557	343205864113242
810	2531	343205864799064
810	2515	343205865624127
809	2507	343205866331187
809	2514	343205867152877
810	2532	343205867976197
808	2547	343205868575509
806	2555	343205869373853
803	2562	343205870149998
797	2565	343205870960595
793	2554	343205871784217
784	2529	343205872581094
776	2504	343205873412994
767	2491	343205874231565
761	2489	343205875017768
756	2500	343205875825288
755	2517	343205876672149
756	2533	343205877550128
757	2547	343205878379960
757	2554	343205879181909
759	2552	343205879987151
755	2537	343205880795509
750	2509	343205881649689
752	2491	343205882648916
753	2486	343205883565542
750	2498	343205884403653
746	2516	343205885080657
741	2533	343205885887938
732	2548	343205886713375
726	2554	343205887547594
718	2550	343205888346397
714	2536	343205889078829
709	2512	343205889886389
703	2494	343205890717894
706	2488	343205891334550
709	2489	343205892144319
712	2502	343205892968873
717	2518	343205893776998
719	2535	343205894613885
724	2548	343205895415262
724	2554	343205896230762
721	2550	343205897042308
719	2531	343205897869827
717	2503	343205898726480
714	2483	343205899562322
710	2483	343205900366307
703	2497	343205901077689
697	2517	343205901707656
693	2535	343205902546361
691	2551	343205903389600
693	2556	343205904200273
691	2552	343205905009529
689	2536	343205905796429
687	2510	343205906623892
689	2490	343205907457722
698	2482	343205908293875
704	2492	343205909077355
700	2509	343205909887436
694	2531	343205910721829
689	2546	343205911561569
690	2553	343205912370969
689	2550	343205913217400
688	2535	343205913915594
688	2511	343205914771412
689	2490	343205915605265
690	2486	343205916336784
690	2496	343205917078760
691	2514	343205917925405
690	2535	343205918737033
690	2554	343205919571946
685	2563	343205920371622
687	2557	343205921190657
695	2541	343205921998014
702	2513	343205922862182
701	2488	343205923749781
696	2477	343205924592925
692	2477	343205925402846
690	2494	343205926212096
688	2514	343205927017450
689	2533	343205927866091
692	2545	343205928699406
692	2551	343205929540276
689	2544	343205930344710
695	2526	343205931150864
700	2500	343205931957801
704	2483	343205932802752
700	2485	343205933707989
692	2504	343205934544387
692	2527	343205935345536
696	2551	343205936154228
706	2567	343205936913120
718	2572	343205937858215
731	2562	343205938695888
739	2536	343205939538642
750	2510	343205940363663
757	2499	343205941170841
757	2501	343205941975546
750	2519	343205942847267
741	2544	343205943738506
734	2565	343205944573229
726	2576	343205945396222
717	2578	343205946205423
709	2563	343205947009174
702	2537	343205947871219
694	2518	343205948694720
689	2511	343205949532154
687	2516	343205950339144
683	2535	343205951145945
681	2556	343205951984176
681	2574	343205952877011
677	2581	343205953780259
673	2574	343205954615595
669	2554	343205955416904
669	2527	343205956079452
669	2508	343205956890859
670	2491	343205957861456
670	2492	343205958697396
663	2508	343205959536478
659	2530	343205960360157
659	2551	343205961136479
668	2566	343205961946009
677	2574	343205962861130
685	2563	343205963757604
692	2540	343205964593554
697	2516	343205965420269
704	2506	343205966231547
711	2513	343205967042855
708	2534	343205967869810
703	2560	343205968709633
695	2580	343205969558826
698	2592	343205970385005
708	2596	343205971192738
717	2587	343205971997895
726	2562	343205972869207
733	2536	343205973560070
736	2526	343205974366838
735	2524	343205975186084
728	2540	343205976005757
724	2565	343205976735338
724	2587	343205977538594
727	2602	343205978365685
737	2617	343205979168910
752	2626	343205979991958
769	2618	343205980808396
788	2592	343205981643703
795	2580	343205982475855
794	2581	343205983300802
791	2599	343205984124710
783	2623	343205984954275
781	2643	343205985762346
782	2659	343205986595518
788	2667	343205987393826
791	2671	343205988222265
791	2660	343205989034691
792	2638	343205989838863
789	2614	343205990676082
783	2606	343205991508835
775	2620	343205992333956
768	2651	343205993080459
762	2682	343205993897438
758	2708	343205994729626
752	2716	343205995496312
748	2711	343205996303642
745	2692	343205997132338
743	2666	343205997956814
744	2645	343205998764684
752	2634	343205999593195
764	2635	343206000399031
777	2646	343206001080089
787	2661	343206001719317
794	2676	343206002563621
796	2690	343206003388443
793	2695	343206004228777
785	2687	343206005007363
780	2664	343206005814714
771	2637	343206006644899
763	2621	343206007593837
765	2615	343206008421697
774	2620	343206009256363
784	2639	343206009989182
793	2656	343206010792654
802	2672	343206011620227
811	2677	343206012352950
817	2671	343206013182695
821	2656	343206014013729
821	2630	343206014822188
826	2610	343206015657028
831	2607	343206016485782
827	2615	343206017299569
818	2629	343206018127410
812	2648	343206018931870
807	2667	343206019743739
804	2681	343206020475400
800	2684	343206021303775
793	2668	343206022114730
788	2641	343206022924550
782	2619	343206023798009
775	2612	343206024598409
768	2619	343206025410329
761	2635	343206026234306
756	2655	343206027029651
751	2674	343206027879328
746	2685	343206028704900
744	2687	343206029550928
741	2678	343206030357202
737	2654	343206031177591
734	2629	343206031988955
731	2617	343206032874984
725	2622	343206033767627
720	2641	343206034607713
716	2657	343206035409011
706	2671	343206036460653
697	2675	343206037095377
695	2673	343206037922997
690	2657	343206038742259
690	2631	343206039581819
689	2605	343206040386101
691	2591	343206041078951
689	2589	343206041892829
680	2601	343206042845502
675	2618	343206043742658
669	2634	343206044566381
662	2641	343206045376190
657	2645	343206046181217
655	2635	343206046987639
658	2612	343206047882792
655	2583	343206048745959
650	2569	343206049571770
645	2571	343206050385153
648	2585	343206051188089
662	2602	343206051995293
671	2623	343206052826747
674	2641	343206053724889
669	2645	343206054552574
666	2634	343206055359402
669	2610	343206056163970
676	2584	343206056971126
687	2568	343206057880573
694	2569	343206058708488
703	2585	343206059556033
711	2606	343206060216163
716	2627	343206061044400
718	2652	343206061855151
717	2672	343206062807294
709	2662	343206063811978
708	2632	343206064663112
707	2613	343206065489901
702	2607	343206066232947
697	2617	343206067036764
695	2640	343206067892650
704	2665	343206068560196
707	2681	343206069308609
716	2693	343206070116015
726	2696	343206070902956
735	2683	343206071739182
736	2656	343206072477210
734	2634	343206073305675
726	2617	343206074114909
719	2614	343206074924187
716	2623	343206075751072
718	2650	343206076587782
725	2677	343206077395651
735	2692	343206078223529
733	2698	343206079033029
736	2694	343206079841247
745	2673	343206080698885
764	2645	343206081546053
777	2627	343206082351933
775	2617	343206082976906
769	2622	343206083859763
769	2639	343206084689119
773	2659	343206085548094
789	2676	343206086353537
806	2686	343206087103280
825	2689	343206087923904
850	2680	343206088755634
887	2659	343206089593059
927	2631	343206090415773
947	2612	343206091220360
949	2611	343206092033684
938	2629	343206092793763
937	2655	343206093706171
939	2674	343206094548666
943	2689	343206095370039
946	2687	343206096176283
945	2671	343206096987257
938	2640	343206097889659
937	2617	343206098727171
935	2603	343206099561987
933	2599	343206100367252
930	2608	343206101077409
935	2619	343206101742146
939	2637	343206102598254
945	2649	343206103425487
946	2655	343206104254860
946	2647	343206105061673
952	2625	343206105855586
952	2602	343206106690025
945	2594	343206107545619
940	2593	343206108371428
944	2597	343206109077206
952	2608	343206109882227
960	2625	343206110711793
967	2639	343206111547639
977	2650	343206112372661
975	2642	343206113196665
964	2621	343206114006306
954	2593	343206114809612
947	2574	343206115642613
936	2568	343206116474743
929	2575	343206117305642
921	2589	343206118129039
914	2606	343206118932688
919	2625	343206119869232
921	2635	343206120703942
921	2632	343206121555811
919	2612	343206122387577
915	2584	343206123219746
909	2560	343206124044582
903	2551	343206124869703
892	2561	343206125705096
886	2579	343206126539012
881	2593	343206127342908
874	2607	343206128167940
870	2622	343206128761627
866	2627	343206129616079
857	2625	343206130419411
851	2609	343206131222333
854	2583	343206131983068
852	2565	343206132889153
847	2569	343206133791015
854	2589	343206134647927
864	2611	343206135422101
864	2630	343206136226804
857	2645	343206137000807
861	2655	343206137893047
874	2650	343206138730035
884	2627	343206139566078
885	2603	343206140374481
875	2591	343206141179956
868	2595	343206141982388
873	2621	343206142887597
881	2653	343206143780642
882	2676	343206144646052
875	2692	343206145475710
873	2694	343206146280069
874	2678	343206147080655
868	2651	343206147904219
859	2633	343206148708540
854	2626	343206149573482
856	2635	343206150378343
853	2652	343206151181527
845	2667	343206151798523
840	2681	343206152636350
833	2692	343206153563920
825	2696	343206154389697
821	2688	343206155197390
820	2668	343206155932592
817	2644	343206156698806
810	2627	343206157548998
801	2628	343206158366548
797	2643	343206159193334
789	2665	343206160004341
783	2686	343206160805896
774	2700	343206161543913
768	2707	343206162172643
765	2706	343206162996023
762	2690	343206163825056
758	2663	343206164663011
754	2640	343206165506720
752	2628	343206166297603
750	2630	343206167104629
744	2647	343206167935834
738	2668	343206168773112
732	2688	343206169607084
730	2701	343206170411599
730	2701	343206171213104
726	2684	343206172021458
718	2654	343206172895352
715	2627	343206173804525
710	2621	343206174641894
703	2630	343206175592265
696	2651	343206176353492
695	2670	343206177161342
694	2686	343206177986560
688	2694	343206178799902
681	2689	343206179628835
674	2672	343206180435224
667	2647	343206181238632
665	2629	343206182040356
664	2622	343206182896384
661	2629	343206183832237
660	2639	343206184664514
654	2652	343206185501044
655	2664	343206186329007
652	2676	343206187143953
647	2678	343206187962520
648	2663	343206188780884
646	2638	343206189626747
641	2620	343206190435867
635	2612	343206191259915
628	2615	343206192066050
626	2628	343206192892474
630	2647	343206193780256
638	2663	343206194617184
642	2675	343206195421073
645	2678	343206196226413
649	2669	343206197034872
646	2641	343206197900974
648	2619	343206198755856
656	2611	343206199637524
662	2619	343206200448680
679	2641	343206201078160
695	2657	343206201687809
707	2675	343206202516134
711	2690	343206203376179
705	2690	343206204190770
706	2674	343206205002795
711	2647	343206205800413
719	2623	343206206635354
734	2607	343206207439084
753	2605	343206208284367
771	2614	343206209077995
788	2630	343206209886877
802	2645	343206210715938
805	2655	343206211548673
800	2662	343206212353257
796	2655	343206213195237
795	2637	343206214004089
792	2610	343206214810837
792	2591	343206215635910
790	2583	343206216243524
788	2587	343206217050851
791	2599	343206217899794
793	2621	343206218729641
798	2641	343206219567035
807	2655	343206220368497
817	2653	343206221178986
818	2639	343206221983799
815	2608	343206222900184
809	2594	343206223794010
807	2591	343206224616565
805	2597	343206225380106
805	2608	343206226193269
804	2621	343206227001367
798	2634	343206227901932
793	2641	343206228742785
792	2639	343206229634137
791	2620	343206230438858
784	2594	343206231244226
780	2574	343206232048856
778	2568	343206232873899
771	2574	343206233772689
765	2586	343206234611478
758	2597	343206235409379
755	2603	343206236218092
757	2609	343206237026888
758	2608	343206237951909
755	2591	343206238765315
749	2566	343206239582490
749	2540	343206240408157
747	2525	343206241189632
742	2523	343206241998904
734	2536	343206242899387
727	2557	343206243797437
721	2577	343206244631520
715	2592	343206245374724
709	2598	343206246182628
706	2593	343206246985837
709	2570	343206247897808
711	2546	343206248722261
707	2537	343206249568944
710	2544	343206250342672
713	2559	343206251146392
719	2581	343206251955026
723	2603	343206252891717
720	2619	343206253745422
714	2622	343206254581989
706	2605	343206255381211
702	2580	343206256112150
700	2556	343206256919725
701	2541	343206257872827
699	2542	343206258711068
695	2559	343206259547736
692	2583	343206260348435
693	2598	343206261155908
690	2609	343206261964021
681	2608	343206262892786
673	2592	343206263789650
667	2568	343206264597131
660	2547	343206265419156
656	2537	343206266234742
651	2534	343206267043412
649	2543	343206267907624
650	2556	343206268713006
652	2567	343206269556997
657	2572	343206270376141
664	2570	343206271186251
660	2558	343206271993544
667	2533	343206272904381
674	2504	343206273801485
678	2492	343206274626740
677	2493	343206275430490
671	2507	343206276238611
668	2526	343206277047811
667	2544	343206277980951
670	2556	343206278756123
684	2557	343206279588148
700	2547	343206280388304
710	2525	343206281076562
712	2504	343206281883245
707	2490	343206282855360
700	2494	343206283757146
702	2513	343206284607852
707	2532	343206285405722
710	2552	343206286219127
712	2563	343206287024751
705	2561	343206288018576
698	2550	343206288812894
691	2528	343206289625068
688	2501	343206290447280
687	2488	343206291254220
691	2488	343206292045231
696	2507	343206292915481
699	2534	343206293817322
702	2552	343206294658839
705	2568	343206295376837
702	2577	343206296190541
696	2573	343206297001247
688	2549	343206297906357
688	2530	343206298741743
697	2520	343206299576703
716	2525	343206300376287
732	2539	343206301079017
737	2556	343206301893235
744	2571	343206302865825
743	2579	343206303764277
740	2580	343206304590105
733	2566	343206305398634
726	2540	343206306200784
719	2518	343206307005317
717	2501	343206307894820
717	2502	343206308737429
711	2513	343206309573652
705	2531	343206310371164
704	2548	343206311175122
701	2561	343206311978526
695	2569	343206312740898
687	2562	343206313651203
681	2537	343206314462332
675	2520	343206315285433
678	2515	343206316095564
693	2512	343206316902407
714	2520	343206317856201
725	2535	343206318694786
722	2549	343206319524856
716	2563	343206320350562
713	2566	343206321158754
710	2554	343206321966035
704	2524	343206322897739
706	2498	343206323789635
714	2489	343206324634212
725	2497	343206325447780
731	2517	343206326257219
739	2536	343206327063751
747	2551	343206327911765
758	2557	343206328758415
770	2557	343206329598345
783	2543	343206330402269
787	2517	343206331206354
785	2495	343206332010751
797	2483	343206332914634
805	2485	343206333808298
807	2498	343206334637440
806	2517	343206335433312
802	2536	343206336243461
795	2552	343206337032470
794	2556	343206337912993
796	2548	343206338748668
801	2525	343206339580426
797	2500	343206340404200
788	2487	343206341211452
781	2491	343206342019687
778	2506	343206342913759
770	2529	343206343966121
763	2551	343206344790891
756	2570	343206345652168
749	2576	343206346460110
741	2568	343206347266618
738	2545	343206348084761
737	2521	343206348895921
739	2511	343206349678456
747	2518	343206350554282
757	2534	343206351361270
766	2551	343206352169976
774	2571	343206353020590
783	2583	343206353784197
787	2580	343206354669211
782	2566	343206355499926
781	2540	343206356307222
788	2520	343206357115489
806	2509	343206357904718
831	2509	343206358743630
853	2521	343206359575309
867	2539	343206360274900
874	2555	343206361085708
887	2568	343206361889772
897	2563	343206362865322
891	2544	343206363760635
896	2518	343206364594758
898	2500	343206365397632
904	2493	343206366206867
912	2495	343206367009716
916	2504	343206367916358
909	2512	343206368650144
904	2514	343206369453530
898	2516	343206370251564
891	2516	343206371063509
881	2507	343206371867938
870	2481	343206372818982
866	2455	343206373703676
875	2441	343206374554982
878	2443	343206375362836
875	2457	343206376173436
866	2477	343206376980595
853	2496	343206378055622
843	2506	343206378783382
836	2505	343206379620491
827	2493	343206380421739
821	2471	343206381230515
817	2447	343206382036064
814	2430	343206382911438
811	2426	343206383855734
814	2442	343206384688924
817	2465	343206385557947
821	2490	343206386371457
828	2503	343206387160346
838	2506	343206387979023
844	2498	343206388789714
844	2472	343206389627328
836	2448	343206390455541
831	2433	343206391257215
830	2436	343206392062127
834	2453	343206392920387
838	2478	343206393811378
842	2501	343206394641787
857	2522	343206395419002
880	2532	343206396223037
897	2525	343206397029894
890	2498	343206397922523
881	2481	343206398757834
870	2475	343206399659530
866	2485	343206400472486
866	2507	343206401077162
867	2526	343206401699514
869	2545	343206402634926
872	2560	343206403464336
873	2561	343206404252778
873	2550	343206405056009
865	2528	343206405860993
858	2505	343206406689570
848	2491	343206407541155
839	2489	343206408373476
830	2501	343206409184505
823	2522	343206409983909
817	2539	343206410788473
808	2556	343206411670721
799	2561	343206412529594
789	2553	343206413330358
784	2533	343206414153956
787	2507	343206414963509
793	2493	343206415783045
797	2489	343206416528915
806	2496	343206417353373
820	2512	343206418180747
829	2533	343206418987739
834	2549	343206419786775
833	2555	343206420446849
828	2550	343206421079028
835	2539	343206421909712
858	2514	343206422865247
864	2489	343206423764989
862	2475	343206424536691
878	2474	343206425346061
897	2486	343206426150623
897	2510	343206426971698
891	2533	343206427919675
885	2549	343206428765968
876	2555	343206429621269
868	2548	343206430430064
861	2531	343206431229523
862	2508	343206432054653
856	2497	343206432884909
849	2504	343206433785979
842	2524	343206434614404
841	2547	343206435418828
851	2566	343206436231261
863	2578	343206436996317
872	2581	343206437920205
872	2568	343206438756592
870	2548	343206439582112
865	2523	343206440392525
857	2515	343206441204260
854	2520	343206442011003
850	2539	343206442916819
848	2560	343206443808236
840	2575	343206444664599
837	2587	343206445416508
837	2588	343206446223277
841	2576	343206447021328
854	2547	343206447925292
864	2525	343206448765872
865	2518	343206449541445
857	2526	343206450348766
867	2545	343206451155693
888	2572	343206451953093
919	2593	343206452909177
943	2593	343206453793636
943	2582	343206454624289
940	2560	343206455426559
932	2534	343206456033317
925	2514	343206456862501
919	2498	343206457698486
913	2497	343206458551170
904	2507	343206459352661
893	2528	343206460043917
888	2546	343206460851853
879	2563	343206461699928
872	2571	343206462519729
862	2569	343206463348277
856	2550	343206464155345
851	2527	343206464968054
846	2519	343206465806552
840	2521	343206466653983
836	2536	343206467471569
835	2553	343206468291491
841	2570	343206469117508
854	2574	343206469926784
873	2571	343206470756981
893	2559	343206471609845
906	2538	343206472422620
919	2513	343206473248250
925	2496	343206474048508
919	2492	343206474852438
925	2495	343206475682755
953	2505	343206476580307
1000	2516	343206477388292
1035	2526	343206478214094
1047	2528	343206478797980
1048	2522	343206479635819
1050	2511	343206480443268
1044	2496	343206481243202
1046	2471	343206482053029
1052	2447	343206482921081
1061	2443	343206483864786
1065	2460	343206484699968
1061	2486	343206485484882
1051	2510	343206486311194
1048	2525	343206487043878
1047	2530	343206487935209
1049	2515	343206488696104
1045	2492	343206489530658
1035	2472	343206490337824
1023	2461	343206491166158
1018	2465	343206491973369
1017	2481	343206492920061
1009	2501	343206493808291
1007	2515	343206494643592
1005	2524	343206495421247
997	2524	343206496180608
987	2511	343206496989412
979	2482	343206497925522
975	2457	343206498781471
976	2444	343206499550657
977	2445	343206500358228
976	2455	343206501143537
969	2470	343206501948918
964	2491	343206502900651
957	2504	343206503803740
957	2505	343206504642246
960	2495	343206505449875
959	2471	343206506255650
949	2446	343206507060929
941	2437	343206507931176
938	2441	343206508773494
942	2457	343206509611999
954	2478	343206510415808
976	2498	343206511241877
993	2512	343206512051552
989	2510	343206512939950
979	2491	343206513832100
979	2467	343206514639297
983	2450	343206515443013
991	2444	343206516238542
1004	2451	343206517046885
1020	2470	343206517942257
1032	2486	343206518762762
1035	2492	343206519595569
1029	2494	343206520403109
1018	2494	343206521077406
1014	2485	343206521877382
1012	2459	343206522555746
1012	2443	343206523397636
1018	2432	343206524210775
1030	2435	343206524993403
1045	2449	343206525804318
1057	2463	343206526641236
1064	2475	343206527450528
1070	2482	343206528297797
1068	2481	343206529054818
1062	2473	343206529862803
1066	2454	343206530690444
1080	2430	343206531522175
1095	2405	343206532330507
1106	2398	343206533184897
1116	2405	343206533972384
1115	2419	343206534794792
1105	2436	343206535687812
1111	2448	343206536521189
1125	2457	343206537305894
1138	2461	343206538140259
1146	2448	343206539171025
1149	2415	343206540130978
1140	2401	343206540967235
1133	2398	343206541800319
1126	2408	343206542641342
1117	2427	343206543302371
1108	2443	343206544120801
1097	2464	343206544935853
1089	2474	343206545791438
1082	2473	343206546625675
1071	2459	343206547435147
1063	2432	343206548259099
1055	2416	343206549069671
1053	2410	343206549875932
1053	2420	343206550728869
1056	2438	343206551558525
1065	2458	343206552364561
1077	2471	343206553183821
1088	2475	343206553804931
1092	2474	343206554688137
1087	2457	343206555545500
1076	2431	343206556349639
1069	2414	343206557078691
1064	2406	343206557927385
1066	2411	343206558762499
1081	2428	343206559596698
1097	2449	343206560304899
1100	2465	343206561112732
1103	2474	343206561917177
1090	2475	343206562869412
1085	2459	343206563769532
1089	2433	343206564611275
1090	2415	343206565436282
1081	2407	343206566227123
1069	2415	343206567031618
1064	2438	343206568040781
1068	2460	343206568853474
1074	2477	343206569694040
1071	2483	343206570398275
1064	2484	343206571170120
1055	2475	343206571944545
1052	2449	343206572860923
1054	2429	343206573738067
1049	2423	343206574521625
1039	2430	343206575295684
1030	2446	343206576074989
1019	2470	343206576646645
1012	2485	343206577439472
1004	2501	343206578238415
999	2511	343206578793946
997	2506	343206579595459
1000	2488	343206580381949
1000	2464	343206581165717
992	2447	343206581970922
981	2441	343206582936093
985	2455	343206583891128
983	2473	343206584651940
975	2488	343206585460574
973	2501	343206586275080
983	2505	343206587064269
1010	2500	343206587949136
1034	2477	343206588790102
1042	2450	343206589679982
1039	2431	343206590486685
1032	2422	343206591292345
1028	2427	343206592051848
1020	2444	343206592945293
1012	2465	343206593881958
1001	2482	343206594733410
994	2493	343206595430450
987	2492	343206596238254
977	2478	343206597042534
973	2451	343206597956796
972	2431	343206598799473
969	2426	343206599557526
969	2431	343206600369099
972	2445	343206601172509
971	2461	343206601974620
962	2479	343206602934736
951	2494	343206603806714
945	2496	343206604664252
937	2481	343206605477142
926	2456	343206606259735
921	2442	343206607088958
917	2436	343206607936876
910	2439	343206608753081
901	2453	343206609588779
900	2473	343206610373254
896	2490	343206611185204
894	2503	343206612002759
888	2504	343206612940571
881	2491	343206613841541
879	2465	343206614705034
883	2448	343206615491326
888	2442	343206616302162
896	2453	343206617131038
907	2478	343206617963987
921	2506	343206618770311
927	2527	343206619629000
925	2534	343206620431116
918	2527	343206621088166
918	2512	343206621914661
940	2480	343206622871576
979	2457	343206623896619
1011	2452	343206624814356
1038	2464	343206625727275
1050	2483	343206626563578
1046	2505	343206627386464
1036	2523	343206628058630
1033	2529	343206628781942
1033	2528	343206629646400
1033	2513	343206630453707
1031	2488	343206631249046
1028	2469	343206632053516
1028	2462	343206632937502
1027	2474	343206633839750
1027	2497	343206634694917
1027	2523	343206635493174
1024	2545	343206636309318
1018	2558	343206637070584
1023	2550	343206637925649
1026	2524	343206638765536
1014	2501	343206639620284
1006	2488	343206640425289
997	2484	343206641083054
991	2485	343206641891450
987	2498	343206642737539
984	2515	343206643659868
974	2536	343206644489583
965	2547	343206645303797
957	2548	343206646109089
951	2535	343206646908301
941	2509	343206647745388
934	2486	343206648602380
923	2471	343206649427468
921	2472	343206650239109
924	2484	343206651045591
929	2499	343206651691040
928	2510	343206652498024
930	2522	343206653329657
925	2529	343206654134853
924	2526	343206654945280
924	2508	343206655781189
924	2480	343206656632830
920	2461	343206657443900
911	2457	343206658274256
913	2469	343206659102112
923	2487	343206659907935
937	2503	343206660752731
951	2511	343206661585367
967	2512	343206662391689
981	2498	343206663218881
990	2476	343206664052097
984	2449	343206664756403
983	2431	343206665599865
988	2418	343206666188707
996	2418	343206666997217
1006	2426	343206667866044
999	2432	343206668719245
993	2436	343206669620811
988	2442	343206670433591
985	2445	343206671255293
977	2439	343206672063551
968	2415	343206672954560
977	2390	343206673870899
994	2379	343206674564503
1000	2384	343206675377496
1005	2403	343206676185146
1001	2424	343206676995769
990	2449	343206678028253
982	2458	343206678690425
979	2457	343206679499163
979	2445	343206680320600
977	2420	343206681125334
977	2400	343206681942544
975	2387	343206682905916
977	2394	343206683867744
980	2412	343206684706731
980	2434	343206685544935
976	2451	343206686376397
967	2463	343206687065412
958	2464	343206687960470
946	2451	343206688719242
940	2428	343206689563384
930	2407	343206690371265
924	2402	343206691199140
920	2412	343206692008631
912	2437	343206692954506
911	2456	343206693883240
918	2469	343206694723937
931	2476	343206695443093
945	2474	343206696202588
952	2462	343206697012659
947	2434	343206697944705
938	2414	343206698801669
929	2401	343206699566831
920	2403	343206700379176
912	2418	343206701187586
909	2439	343206701995295
910	2463	343206702943183
910	2478	343206703703165
907	2479	343206704508043
901	2473	343206705266898
896	2453	343206706071631
887	2428	343206706894612
876	2416	343206707729354
870	2419	343206708601219
863	2437	343206709415529
862	2462	343206710224141
862	2497	343206711049146
862	2522	343206711854242
855	2530	343206712693167
846	2522	343206713454760
838	2499	343206714192884
834	2479	343206715000857
832	2467	343206715824454
833	2469	343206716701315
832	2489	343206717553854
832	2510	343206718320240
832	2532	343206719130222
825	2548	343206719936794
816	2555	343206720791164
807	2545	343206721633781
801	2520	343206722440774
797	2493	343206723282276
793	2476	343206724094207
794	2472	343206724902427
793	2481	343206725754685
788	2499	343206726587790
787	2520	343206727394285
792	2543	343206728213383
802	2559	343206729023386
804	2558	343206729830688
800	2541	343206730682557
796	2518	343206731490718
796	2507	343206732302266
794	2506	343206732972859
787	2513	343206733866145
789	2529	343206734710458
790	2541	343206735678033
784	2549	343206736500874
788	2557	343206737090925
793	2556	343206737973533
792	2542	343206738813186
784	2514	343206739647331
778	2494	343206740479428
772	2488	343206741213650
766	2490	343206742023872
759	2507	343206742948755
756	2527	343206743852824
752	2546	343206744689975
752	2560	343206745484977
752	2560	343206746298992
748	2545	343206747110089
743	2520	343206747967487
737	2496	343206748812240
733	2485	343206749591625
733	2488	343206750410925
738	2505	343206751220503
752	2524	343206751956226
775	2546	343206752936640
798	2560	343206753738867
812	2562	343206754542219
820	2550	343206755344817
818	2528	343206756153492
815	2502	343206756960523
844	2488	343206757943468
894	2488	343206758785003
942	2502	343206759617453
967	2526	343206760421354
976	2552	343206761231694
969	2573	343206762040753
962	2580	343206762969353
964	2564	343206763869250
968	2537	343206764692743
972	2519	343206765556058
974	2512	343206766234975
974	2519	343206767044301
969	2545	343206767955795
959	2572	343206768599417
953	2587	343206769409584
952	2591	343206770236332
948	2583	343206771038274
942	2568	343206771845292
931	2539	343206772809538
923	2513	343206773707833
914	2500	343206774518221
908	2499	343206775344833
903	2512	343206776156112
895	2534	343206776972757
889	2553	343206778047292
887	2564	343206778735701
887	2566	343206779570126
893	2558	343206780371468
905	2537	343206781078144
912	2519	343206781865528
909	2508	343206782725976
903	2507	343206783652250
892	2521	343206784476102
893	2536	343206785282062
895	2550	343206786095350
897	2564	343206786887107
901	2570	343206787639375
901	2563	343206788467405
894	2540	343206789086083
887	2519	343206789920870
881	2499	343206790748073
881	2496	343206791707586
887	2507	343206792467234
892	2528	343206793302167
893	2548	343206794112662
887	2567	343206794938390
875	2575	343206795771819
867	2567	343206796650110
862	2540	343206797462633
860	2516	343206798293971
856	2504	343206799104708
854	2501	343206799930888
855	2509	343206800773057
859	2521	343206801611279
857	2537	343206802432819
851	2549	343206803259924
843	2548	343206804061766
836	2538	343206804891678
828	2519	343206805730170
825	2491	343206806559476
829	2473	343206807360657
831	2465	343206807991777
828	2474	343206808830277
819	2496	343206809690913
814	2517	343206810493685
808	2533	343206811300154
805	2543	343206812101103
801	2539	343206812970798
794	2519	343206813872677
791	2491	343206814701442
796	2470	343206815508543
801	2462	343206816240163
796	2470	343206817063469
787	2491	343206817977579
780	2513	343206818812245
772	2532	343206819668978
767	2542	343206820477905
766	2542	343206821077848
760	2535	343206821885481
753	2513	343206822743469
745	2489	343206823667988
738	2485	343206824504411
731	2496	343206825324493
732	2516	343206826139991
735	2536	343206826742427
736	2546	343206827744072
732	2561	343206828591000
729	2563	343206829397439
722	2556	343206830212710
716	2532	343206830864080
715	2512	343206831721204
710	2500	343206832530281
706	2499	343206833362767
707	2510	343206834185620
709	2526	343206834993309
709	2542	343206835826341
709	2555	343206836681354
713	2557	343206837489074
725	2548	343206838320365
733	2529	343206839121929
732	2503	343206839930280
727	2482	343206840766176
719	2477	343206841618432
717	2486	343206842424661
718	2507	343206843253490
724	2534	343206844090488
740	2552	343206844905944
772	2557	343206845751553
797	2549	343206846603100
797	2527	343206847407524
790	2504	343206848239203
784	2489	343206849047446
784	2477	343206849634795
780	2479	343206850440154
781	2488	343206851265972
789	2505	343206852070714
794	2524	343206852980764
795	2539	343206853735486
791	2542	343206854625694
786	2534	343206855435488
779	2510	343206856084457
773	2490	343206856900844
764	2472	343206857719872
762	2475	343206858574875
764	2497	343206859388565
766	2525	343206859979437
763	2541	343206860840719
758	2556	343206861669972
763	2563	343206862476393
761	2558	343206863301091
754	2544	343206864115367
753	2521	343206864923430
752	2497	343206865564200
756	2495	343206866225640
767	2504	343206867027632
783	2531	343206867966661
796	2556	343206868808411
809	2575	343206869648791
810	2588	343206870370746
804	2590	343206871180332
799	2584	343206871988486
814	2557	343206872750895
830	2537	343206873671815
858	2524	343206874498051
865	2533	343206875329501
859	2554	343206876140636
858	2579	343206876949074
860	2607	343206878038105
861	2617	343206878747325
856	2613	343206879581677
848	2601	343206880344100
842	2584	343206881155947
834	2560	343206881967301
832	2544	343206882874329
834	2553	343206883830021
836	2579	343206884675381
838	2603	343206885516522
838	2620	343206886333279
841	2631	343206887094931
842	2636	343206887983524
842	2623	343206888813805
834	2596	343206889653197
824	2572	343206890479881
820	2562	343206891221589
823	2568	343206892033628
827	2589	343206892963195
828	2611	343206893856342
831	2628	343206894667668
840	2631	343206895347710
838	2626	343206896160785
831	2607	343206896965619
828	2579	343206897920223
825	2550	343206898761576
821	2537	343206899597128
817	2551	343206900422237
811	2576	343206901079477
806	2590	343206901895261
799	2598	343206902753427
793	2604	343206903713820
788	2601	343206904536767
781	2577	343206905341233
772	2559	343206906152180
764	2544	343206906961538
755	2526	343206907839148
750	2524	343206908689112
744	2534	343206909509593
739	2548	343206910317306
731	2555	343206911128493
724	2561	343206911939178
716	2560	343206912785567
709	2541	343206913634028
709	2526	343206914442100
715	2500	343206915288222
718	2476	343206916093563
713	2472	343206916916856
705	2489	343206917752794
697	2508	343206918609228
696	2524	343206919385589
698	2535	343206920216117
703	2543	343206921027976
709	2538	343206921842607
712	2517	343206922467514
711	2497	343206923295795
706	2478	343206924109583
703	2472	343206924939205
705	2482	343206925786865
719	2503	343206926592472
728	2524	343206927412302
728	2537	343206928247479
732	2548	343206929059690
737	2545	343206929888696
739	2528	343206930723367
734	2502	343206931527500
730	2485	343206932334243
732	2479	343206933163059
741	2493	343206933979882
752	2519	343206934836265
762	2544	343206935677107
771	2564	343206936490494
771	2574	343206937097581
773	2575	343206937991248
773	2559	343206938852799
767	2534	343206939709250
767	2523	343206940522390
783	2519	343206941220197
804	2521	343206942049261
829	2536	343206942977463
841	2554	343206943868373
839	2565	343206944735951
833	2568	343206945343925
826	2566	343206946151111
817	2558	343206946953088
808	2544	343206947912676
801	2521	343206948757645
795	2501	343206949596312
795	2509	343206950403620
796	2529	343206951211945
801	2554	343206952015726
803	2581	343206952968362
803	2591	343206953719573
798	2589	343206954522496
790	2573	343206955334243
782	2546	343206956147078
773	2523	343206956978930
765	2506	343206957859071
757	2503	343206958696671
755	2513	343206959603325
758	2534	343206960211097
765	2548	343206961025439
770	2562	343206961856088
767	2566	343206962695337
763	2555	343206963509734
758	2538	343206964341026
751	2513	343206965154385
749	2496	343206965965587
751	2497	343206966814339
754	2512	343206967655822
759	2528	343206968343326
765	2543	343206969165450
774	2556	343206969980820
782	2559	343206970803251
784	2547	343206971658634
780	2521	343206972468228
775	2495	343206973304210
771	2475	343206974112945
771	2468	343206974956314
785	2476	343206975789237
807	2493	343206976595334
824	2508	343206977404497
833	2522	343206978236815
833	2530	343206978953859
827	2520	343206979788188
820	2500	343206980628430
815	2477	343206981454098
812	2470	343206982269436
809	2470	343206982925599
809	2479	343206983852607
811	2499	343206984686626
811	2517	343206985501669
809	2529	343206986305593
803	2532	343206987099850
795	2518	343206987991422
787	2489	343206988848007
779	2465	343206989735940
771	2453	343206990547179
764	2451	343206991231676
757	2461	343206992046786
749	2480	343206992985502
744	2503	343206993877974
743	2520	343206994718412
738	2529	343206995348494
733	2528	343206996152989
725	2516	343206996967022
716	2488	343206997925304
709	2476	343206998788676
705	2476	343206999599172
697	2487	343207000388333
695	2505	343207001187286
692	2527	343207001995414
683	2546	343207002948573
676	2551	343207003725019
674	2543	343207004533231
671	2528	343207005313685
664	2499	343207006139805
659	2479	343207006948637
658	2470	343207007750093
655	2473	343207008480408
657	2485	343207009260376
656	2504	343207009952874
656	2520	343207010774831
654	2540	343207011632786
650	2546	343207012406982
645	2528	343207013026832
641	2505	343207013883069
641	2481	343207014687730
640	2463	343207015485957
638	2454	343207016197932
635	2457	343207016978893
631	2474	343207017906634
624	2492	343207018714771
624	2506	343207019489929
627	2518	343207020287894
632	2520	343207021070613
630	2505	343207021850237
624	2484	343207022478785
620	2473	343207023298238
614	2461	343207024113733
612	2453	343207024953966
612	2458	343207025791491
612	2478	343207026605593
614	2496	343207027428006
613	2508	343207028253468
609	2512	343207029074599
604	2500	343207029902693
597	2478	343207030737563
593	2453	343207031542153
592	2434	343207032302001
593	2421	343207033129801
603	2422	343207033945047
624	2438	343207034800282
639	2461	343207035631971
652	2480	343207036438567
653	2495	343207037121010
650	2497	343207038000178
648	2486	343207038800325
652	2461	343207039667412
667	2449	343207040476968
696	2449	343207041247495
727	2454	343207042068826
750	2475	343207042991310
757	2499	343207043886385
758	2520	343207044750543
755	2529	343207045362942
747	2528	343207046170871
741	2512	343207046942678
735	2489	343207047750261
729	2464	343207048549706
725	2456	343207049341120
729	2461	343207050117184
735	2475	343207050891983
740	2498	343207051610997
739	2518	343207052391327
735	2539	343207053041664
730	2549	343207053702641
727	2553	343207054483039
724	2544	343207055296923
720	2520	343207055877764
717	2506	343207056711582
716	2494	343207057525288
713	2497	343207058362199
707	2516	343207059170378
704	2536	343207059975786
698	2548	343207060815749
693	2567	343207061580044
688	2587	343207062390096
682	2602	343207063233813
676	2592	343207064049606
671	2563	343207064864782
672	2545	343207065702658
672	2546	343207066291555
673	2555	343207067103908
677	2574	343207068003489
684	2593	343207068841807
686	2620	343207069680738
681	2635	343207070388171
676	2639	343207071194493
672	2627	343207072023701
678	2597	343207072996260
688	2576	343207073891390
689	2571	343207074520290
682	2577	343207075343660
674	2598	343207076154764
668	2620	343207076886861
663	2645	343207077966433
656	2653	343207078768311
652	2647	343207079653415
651	2621	343207080461580
645	2594	343207081275649
638	2580	343207082086614
632	2579	343207082880902
631	2584	343207083791525
624	2599	343207084633878
619	2618	343207085434674
612	2635	343207086250155
607	2646	343207086991649
601	2644	343207087962475
595	2621	343207088807359
591	2606	343207089638286
588	2602	343207090472131
589	2592	343207091237151
589	2576	343207092049393
590	2579	343207093002059
591	2604	343207093947125
589	2629	343207094785805
583	2643	343207095644016
577	2651	343207096452492
574	2646	343207097264101
573	2628	343207098105801
571	2608	343207098916941
568	2609	343207099757086
563	2627	343207100608084
561	2649	343207101413695
560	2671	343207102226798
565	2689	343207103046687
567	2698	343207104011116
563	2692	343207104853424
564	2665	343207105711678
568	2645	343207106518754
569	2629	343207107331317
567	2624	343207108092500
562	2630	343207108907799
557	2647	343207109746843
557	2669	343207110598513
560	2683	343207111406273
562	2691	343207111993744
565	2688	343207112963943
569	2666	343207113873413
572	2644	343207114711815
571	2636	343207115526713
573	2635	343207116238520
575	2642	343207117052483
574	2664	343207117987733
576	2684	343207118825527
579	2689	343207119659794
583	2680	343207120362111
578	2668	343207121079960
580	2647	343207121892952
583	2621	343207122737716
584	2592	343207123670845
581	2571	343207124490581
576	2568	343207125321235
573	2580	343207126132808
570	2600	343207126937574
566	2623	343207127905830
562	2636	343207128744681
557	2640	343207129561286
550	2628	343207130368811
545	2603	343207131177346
537	2590	343207131986990
531	2589	343207132844723
526	2603	343207133794219
523	2630	343207134636788
519	2657	343207135438345
513	2678	343207136251288
510	2678	343207136997212
506	2663	343207137973909
499	2638	343207138796106
499	2621	343207139627879
496	2611	343207140453198
493	2613	343207141079490
490	2618	343207141885550
485	2639	343207142730610
479	2664	343207143558284
475	2676	343207144379329
471	2675	343207145213117
468	2665	343207146023036
468	2647	343207146855331
467	2618	343207147489940
464	2599	343207148316685
460	2585	343207149079715
461	2584	343207149904482
463	2599	343207150756493
461	2622	343207151561448
458	2641	343207152386889
462	2655	343207153217199
472	2659	343207154027591
475	2648	343207154918324
471	2621	343207155758354
469	2596	343207156568689
469	2582	343207157374971
467	2584	343207158201683
462	2597	343207159012637
466	2624	343207159866827
473	2645	343207160763337
478	2658	343207161607781
478	2661	343207162407047
478	2652	343207163234645
473	2631	343207164045855
470	2604	343207164932712
464	2591	343207165552302
460	2592	343207166264559
459	2608	343207167093165
456	2639	343207168011348
455	2669	343207168849618
452	2691	343207169685336
448	2705	343207170404144
445	2705	343207171211186
441	2685	343207172043271
443	2656	343207172999316
439	2653	343207173895275
436	2662	343207174527813
434	2671	343207175349325
431	2694	343207176167997
433	2720	343207177003159
431	2740	343207178052393
429	2743	343207178764097
424	2735	343207179615783
423	2722	343207180428982
426	2700	343207181237697
422	2674	343207182066756
417	2666	343207182884051
414	2678	343207183897084
409	2704	343207184755124
411	2726	343207185565753
415	2736	343207186376928
418	2738	343207187030724
422	2737	343207187998111
423	2724	343207188816856
422	2696	343207189672812
418	2677	343207190495705
414	2665	343207191267251
411	2667	343207192093171
409	2684	343207193017726
406	2707	343207193917306
401	2723	343207194775074
398	2731	343207195613364
397	2728	343207196406859
395	2712	343207197086449
398	2688	343207198013317
401	2669	343207198851765
400	2659	343207199531034
399	2659	343207200342004
404	2669	343207201155377
407	2681	343207201959624
411	2691	343207202799716
417	2698	343207203725760
422	2698	343207204534826
429	2686	343207205324681
431	2663	343207206138684
429	2633	343207206966315
428	2613	343207207802587
438	2615	343207208660983
452	2639	343207209466369
465	2665	343207210277657
477	2684	343207211086504
489	2696	343207211914257
499	2698	343207212621729
503	2684	343207213450845
507	2658	343207214157303
506	2642	343207214967445
502	2635	343207215811703
502	2640	343207216667461
507	2657	343207217477060
512	2675	343207218281468
515	2686	343207219103066
516	2684	343207219910123
512	2679	343207220649931
506	2677	343207221481537
502	2661	343207222293618
498	2635	343207223116839
493	2620	343207223933744
494	2620	343207224790757
490	2630	343207225685873
484	2654	343207226517418
481	2680	343207227328156
479	2695	343207228153787
476	2702	343207228777588
476	2702	343207229608666
471	2686	343207230415135
469	2659	343207231242108
467	2637	343207232052762
471	2628	343207232962851
475	2639	343207233886213
473	2661	343207234728324
470	2683	343207235514432
475	2704	343207236345648
476	2719	343207237051129
473	2722	343207238006967
469	2708	343207238785902
466	2682	343207239721438
467	2661	343207240540220
464	2665	343207241291353
460	2678	343207242102309
462	2697	343207243016422
467	2714	343207243906680
469	2726	343207244751587
471	2734	343207245416122
471	2732	343207246244644
475	2712	343207247056458
479	2681	343207248013371
479	2663	343207248878491
478	2656	343207249526179
473	2658	343207250335279
469	2670	343207251143146
467	2682	343207251954016
464	2695	343207252795204
461	2699	343207253723628
456	2691	343207254535157
457	2676	343207255347916
461	2650	343207256159706
464	2624	343207256971941
462	2612	343207257811988
457	2618	343207258686474
457	2641	343207259496372
457	2663	343207260303184
454	2680	343207261085616
450	2688	343207261896726
446	2683	343207262739842
443	2666	343207263563993
440	2641	343207264380906
435	2613	343207265191167
433	2598	343207266019374
439	2601	343207266853158
447	2619	343207267694929
451	2639	343207268524372
453	2655	343207269336257
450	2670	343207270145576
447	2676	343207270971833
442	2676	343207271805655
441	2659	343207272642568
439	2630	343207273488032
443	2620	343207274311762
453	2622	343207275123111
463	2633	343207275929825
470	2652	343207276632349
474	2668	343207277445390
474	2688	343207278295226
475	2704	343207279107834
478	2707	343207279919777
488	2691	343207280761646
497	2667	343207281576969
494	2651	343207282369989
496	2652	343207283214805
505	2674	343207284038037
517	2699	343207284878893
523	2718	343207285733952
526	2730	343207286543030
526	2736	343207287349611
522	2724	343207288199787
517	2699	343207289015438
515	2673	343207289876726
514	2658	343207290759759
508	2661	343207291567832
504	2678	343207292377490
502	2699	343207293079700
505	2716	343207293950664
502	2727	343207294783765
497	2734	343207295382276
491	2733	343207296206242
486	2715	343207297023571
481	2684	343207297976431
476	2669	343207298819564
471	2664	343207299508389
468	2671	343207300329136
465	2687	343207301079202
465	2708	343207301672201
467	2724	343207302498584
469	2738	343207303332240
470	2736	343207304148863
470	2724	343207304957343
470	2704	343207305767645
469	2677	343207306571627
464	2660	343207307401556
460	2655	343207308128708
459	2666	343207308943409
457	2685	343207309778530
454	2702	343207310583424
450	2713	343207311394225
448	2720	343207312224203
444	2717	343207313052399
439	2692	343207313949143
439	2664	343207314801178
441	2642	343207315640542
449	2631	343207316447790
461	2638	343207317079039
474	2654	343207318022627
484	2679	343207318850618
485	2694	343207319692919
484	2699	343207320384040
479	2699	343207321197044
480	2690	343207322026668
477	2663	343207322963871
476	2640	343207323863636
479	2634	343207324483597
484	2640	343207325299114
496	2669	343207326107350
503	2706	343207326932765
500	2733	343207327771042
497	2744	343207328624843
492	2740	343207329434477
487	2719	343207330248108
484	2691	343207331057268
483	2671	343207331893544
485	2664	343207332727674
486	2668	343207333563942
486	2685	343207334377589
490	2703	343207335189528
494	2716	343207335997147
495	2715	343207336821908
497	2708	343207337572442
496	2694	343207338397279
494	2667	343207339138210
498	2644	343207339944693
507	2621	343207340767973
519	2614	343207341672383
529	2624	343207342482583
531	2638	343207343246067
527	2649	343207344086896
522	2661	343207344900249
517	2665	343207345738830
511	2652	343207346566757
507	2632	343207347374568
507	2606	343207348205364
511	2583	343207349013514
523	2572	343207349851783
534	2580	343207350687336
540	2601	343207351512680
536	2625	343207352349540
530	2646	343207353182597
529	2660	343207354049357
530	2656	343207354887221
532	2636	343207355722676
532	2610	343207356482264
530	2594	343207357295127
528	2583	343207357909869
526	2587	343207358770183
522	2608	343207359578794
518	2645	343207360389745
515	2681	343207361216317
512	2701	343207362020665
506	2699	343207362977756
499	2675	343207363894073
494	2647	343207364736632
489	2631	343207365549119
483	2622	343207366142378
480	2624	343207366956193
479	2639	343207367790435
486	2658	343207368665565
495	2677	343207369476539
502	2686	343207370287475
501	2690	343207371118469
497	2682	343207371929651
492	2659	343207372632653
488	2634	343207373484044
485	2618	343207374310255
480	2619	343207375122885
478	2632	343207375927138
478	2651	343207376640390
483	2665	343207377448330
491	2676	343207378302097
499	2679	343207379085082
500	2674	343207379901513
497	2655	343207380661283
494	2633	343207381477628
495	2606	343207382290493
496	2596	343207383147004
497	2608	343207384007326
493	2629	343207384853017
494	2650	343207385706699
498	2659	343207386513178
497	2657	343207387323912
493	2646	343207388169626
488	2625	343207388982729
486	2596	343207389800265
484	2575	343207390627125
483	2564	343207391434368
482	2569	343207392243716
478	2584	343207393089487
473	2603	343207393961087
467	2618	343207394798536
462	2631	343207395644457
459	2629	343207396454499
455	2608	343207397266340
452	2581	343207398109574
450	2556	343207398928953
446	2548	343207399761520
442	2551	343207400589645
439	2567	343207401399578
439	2593	343207402211681
439	2615	343207403039450
440	2634	343207403933178
439	2636	343207404780350
437	2622	343207405654138
434	2596	343207406465413
436	2578	343207407275911
443	2576	343207408160977
448	2587	343207408947559
451	2607	343207409792719
446	2631	343207410691530
441	2653	343207411500637
439	2667	343207412265748
438	2675	343207413114113
436	2664	343207413962007
436	2635	343207414801913
436	2619	343207415641976
438	2609	343207416450488
438	2618	343207417263318
442	2642	343207418096677
446	2663	343207418908565
447	2681	343207419747729
448	2686	343207420393620
451	2686	343207421080211
453	2678	343207421904113
451	2660	343207422763714
448	2632	343207423589846
444	2620	343207424476947
439	2631	343207425287283
435	2656	343207426097547
430	2671	343207426908888
424	2678	343207427771902
420	2686	343207428616130
417	2689	343207429426334
413	2678	343207430232258
409	2657	343207431040702
404	2628	343207431874105
401	2613	343207432739801
399	2622	343207433569229
401	2641	343207434387799
402	2656	343207435192360
403	2659	343207436002719
401	2656	343207436838606
400	2658	343207437703654
399	2656	343207438530670
394	2630	343207439489244
391	2605	343207440320593
388	2591	343207441122030
384	2591	343207441932073
383	2605	343207442765980
382	2626	343207443592256
379	2644	343207444377190
375	2656	343207445209142
371	2659	343207445999524
367	2649	343207446836537
364	2628	343207447666872
363	2600	343207448490546
368	2583	343207449091345
371	2575	343207449921208
380	2585	343207450769317
385	2605	343207451574853
386	2631	343207452333903
385	2651	343207453163654
388	2662	343207453979597
387	2658	343207454828913
384	2643	343207455668456
379	2616	343207456477424
378	2596	343207457078214
376	2591	343207457921422
374	2599	343207458766156
369	2614	343207459593657
369	2632	343207460408967
364	2653	343207461260448
363	2668	343207462027659
362	2674	343207462993732
360	2662	343207463994578
360	2633	343207464830391
360	2616	343207465704624
358	2612	343207466513869
356	2629	343207467302417
355	2651	343207468079639
355	2673	343207468916501
356	2690	343207469749683
357	2697	343207470400017
356	2693	343207471209072
353	2678	343207472038768
351	2647	343207472984565
351	2627	343207473890427
349	2621	343207474527995
346	2628	343207475341532
350	2644	343207476151222
354	2663	343207476981542
358	2687	343207478041111
364	2695	343207478901706
369	2690	343207479752924
375	2673	343207480560445
377	2647	343207481373803
380	2630	343207482206118
385	2627	343207482906886
386	2635	343207483822101
385	2658	343207484666639
382	2674	343207485479586
380	2686	343207486292637
391	2687	343207487037900
408	2677	343207487996546
427	2661	343207488842238
437	2633	343207489684358
462	2612	343207490489425
486	2600	343207491153252
498	2598	343207491975496
508	2610	343207492813664
510	2630	343207493743742
504	2651	343207494571735
502	2664	343207495281414
501	2669	343207496098915
502	2668	343207496923053
504	2650	343207497761250
506	2629	343207498587803
513	2622	343207499419326
522	2626	343207500228572
528	2647	343207501040854
529	2671	343207501889554
525	2690	343207502726268
523	2701	343207503554868
520	2700	343207504416166
514	2685	343207505235638
510	2660	343207506046749
505	2634	343207506903239
500	2624	343207507740538
498	2624	343207508571525
501	2638	343207509381143
507	2656	343207510193439
515	2674	343207511002859
522	2688	343207511858129
525	2694	343207512699454
522	2684	343207513537552
518	2663	343207514347545
514	2637	343207515154842
511	2624	343207515962039
512	2625	343207516665182
510	2635	343207517462915
510	2655	343207518284654
507	2675	343207519113844
504	2692	343207520030401
500	2695	343207520875996
499	2687	343207521783365
501	2669	343207522410448
502	2649	343207523241760
503	2625	343207524079633
500	2621	343207524953725
495	2633	343207525791075
489	2654	343207526500172
485	2676	343207527308643
489	2695	343207528140163
494	2708	343207528970483
499	2706	343207529809174
502	2688	343207530643160
499	2660	343207531463940
496	2636	343207532276178
495	2621	343207533106344
500	2625	343207533975043
499	2645	343207534811624
496	2669	343207535641208
492	2689	343207536446432
487	2702	343207537038011
481	2702	343207538004379
476	2687	343207538867364
472	2663	343207539702325
467	2635	343207540509990
462	2626	343207541087348
459	2626	343207541914919
453	2641	343207542756644
448	2666	343207543603969
444	2685	343207544420963
439	2693	343207545233829
436	2690	343207546059314
435	2681	343207546893615
440	2666	343207547730538
445	2640	343207548575602
447	2613	343207549385807
455	2606	343207550203962
460	2619	343207551008080
465	2644	343207551849861
469	2670	343207552692796
471	2687	343207553552311
470	2689	343207554367356
467	2678	343207555176537
465	2654	343207555786275
464	2640	343207556594580
463	2628	343207557410137
461	2621	343207558239612
459	2631	343207559053380
455	2648	343207559889056
451	2671	343207560748211
446	2687	343207561558125
444	2690	343207562366871
447	2682	343207563211752
454	2660	343207564024278
462	2633	343207564830257
464	2622	343207565556677
469	2619	343207566164228
473	2626	343207566971684
485	2641	343207567826894
504	2658	343207568688358
532	2668	343207569506403
565	2665	343207570287043
601	2658	343207571094261
635	2643	343207571919046
651	2619	343207572783052
661	2591	343207573614715
665	2575	343207574432583
660	2575	343207575259775
656	2588	343207576084138
653	2608	343207576923337
652	2634	343207578028319
654	2646	343207578665805
655	2644	343207579472420
662	2631	343207580231351
669	2608	343207581040848
678	2587	343207581875849
689	2579	343207582707298
700	2583	343207583506736
711	2598	343207584348691
717	2615	343207585143499
724	2624	343207585922748
731	2627	343207586726649
737	2626	343207587520617
740	2614	343207588317515
741	2592	343207589013199
741	2568	343207589832762
738	2548	343207590637597
733	2542	343207591407681
725	2546	343207592215724
722	2562	343207593027971
722	2585	343207593945021
724	2598	343207594752534
724	2607	343207595556749
721	2602	343207596369181
720	2583	343207597199570
716	2554	343207598071821
710	2536	343207598912986
705	2533	343207599542962
700	2541	343207600353009
692	2557	343207601164908
685	2571	343207601977279
681	2580	343207602820078
679	2591	343207603667916
677	2592	343207604434992
678	2571	343207605248779
680	2545	343207606060686
680	2525	343207606916635
680	2510	343207607757598
678	2503	343207608587483
677	2514	343207609393949
676	2528	343207610205349
672	2541	343207611013247
668	2555	343207611864437
661	2560	343207612695850
651	2552	343207613532908
646	2535	343207614344238
639	2508	343207615154170
633	2495	343207615961282
630	2489	343207616805813
631	2496	343207617619813
633	2518	343207618292800
636	2539	343207619123459
639	2556	343207619936855
639	2567	343207620759416
634	2566	343207621584769
630	2548	343207622395410
624	2522	343207623224883
617	2508	343207624074679
616	2508	343207624947103
611	2516	343207625803329
605	2532	343207626525750
601	2546	343207627336603
597	2559	343207628216921
596	2566	343207629050049
606	2559	343207629885278
617	2546	343207630717896
625	2521	343207631537309
628	2501	343207632360692
630	2498	343207633190693
628	2512	343207634030906
622	2531	343207634873050
617	2547	343207635758028
613	2556	343207636564675
609	2555	343207637372512
605	2546	343207638205851
606	2524	343207639020183
605	2496	343207639854006
605	2478	343207640685975
604	2473	343207641487974
605	2476	343207642299835
599	2491	343207643129909
594	2507	343207643989171
588	2521	343207644808283
585	2531	343207645541607
578	2526	343207646372174
573	2512	343207647178882
566	2484	343207648071845
561	2465	343207648908336
559	2458	343207649546424
558	2463	343207650357582
557	2475	343207651183840
558	2491	343207651977126
562	2511	343207652816590
564	2527	343207653672992
567	2534	343207654477996
573	2523	343207655289415
578	2502	343207656118229
584	2478	343207656930153
588	2465	343207657769481
597	2461	343207658608401
607	2472	343207659417891
616	2497	343207660170351
617	2527	343207661002886
613	2553	343207661844834
613	2564	343207662681724
615	2556	343207663475545
617	2535	343207664065529
617	2511	343207664954749
617	2491	343207665815672
613	2490	343207666595898
607	2504	343207667413265
601	2528	343207668184974
595	2550	343207668993796
592	2566	343207669828797
593	2573	343207670679928
592	2567	343207671486119
592	2549	343207672296864
591	2521	343207673078261
585	2499	343207673978526
581	2493	343207674817495
576	2498	343207675679660
570	2512	343207676486581
568	2530	343207677299357
563	2543	343207678124322
560	2553	343207678935446
557	2552	343207679775513
555	2540	343207680602145
552	2515	343207681415256
550	2497	343207682231650
550	2487	343207683066821
547	2488	343207684007978
544	2500	343207684837349
542	2517	343207685735748
539	2533	343207686543585
536	2542	343207687356567
533	2540	343207688223178
529	2525	343207689037958
524	2498	343207689878258
518	2479	343207690719671
514	2474	343207691524725
511	2484	343207692333936
510	2506	343207693078881
511	2524	343207693972684
510	2535	343207694808458
507	2539	343207695607822
505	2534	343207696416348
498	2518	343207697197388
494	2490	343207698080273
494	2471	343207698921663
499	2466	343207699760363
510	2478	343207700588693
523	2499	343207701401166
534	2523	343207702214363
544	2535	343207703077862
548	2535	343207703975048
544	2526	343207704817380
539	2507	343207705675756
537	2481	343207706486364
541	2463	343207707294431
548	2458	343207708048856
558	2463	343207708889035
572	2481	343207709722821
586	2502	343207710541665
601	2521	343207711349670
613	2540	343207711934878
617	2545	343207712799341
618	2535	343207713727337
613	2508	343207714514722
607	2489	343207715320721
605	2480	343207716134686
606	2483	343207716951446
611	2498	343207717818408
618	2521	343207718630627
626	2540	343207719436208
633	2553	343207720241649
636	2557	343207721052433
637	2547	343207721887652
635	2521	343207722749777
629	2499	343207723578420
622	2488	343207724396681
615	2486	343207725224525
613	2496	343207726039116
614	2517	343207726847460
617	2539	343207727705023
619	2555	343207728531472
618	2559	343207729308241
617	2547	343207730131860
617	2528	343207730720156
614	2508	343207731531110
613	2489	343207732364669
612	2482	343207733192846
615	2489	343207734007723
611	2504	343207734839360
607	2522	343207735675371
607	2540	343207736460033
608	2551	343207737076675
611	2549	343207738041292
613	2536	343207738883849
611	2512	343207739737935
605	2489	343207740547201
601	2484	343207741190123
599	2489	343207742018798
592	2507	343207742854649
589	2531	343207743623373
587	2553	343207744571091
587	2560	343207745317248
587	2560	343207746128126
588	2549	343207746957632
584	2520	343207747924137
577	2500	343207748791127
570	2491	343207749452431
565	2494	343207750267329
563	2507	343207751074988
558	2529	343207751933425
557	2546	343207752777760
558	2554	343207753609356
557	2555	343207754442303
554	2551	343207755253814
550	2531	343207756058835
549	2504	343207756916544
546	2490	343207757555722
541	2494	343207758383210
537	2509	343207759188491
536	2526	343207759937281
535	2542	343207760781926
530	2551	343207761608528
524	2554	343207762385542
518	2551	343207763217470
513	2535	343207763980420
510	2511	343207764820173
507	2495	343207765625576
507	2484	343207766449020
507	2491	343207767257299
511	2508	343207768006374
512	2526	343207768858465
511	2540	343207769684696
510	2543	343207770314854
507	2535	343207771146218
502	2513	343207771948025
502	2484	343207772682687
501	2461	343207773526000
499	2445	343207774341757
495	2440	343207775152117
492	2447	343207775982721
493	2463	343207776818584
492	2480	343207777626287
492	2491	343207778452292
489	2493	343207779262056
486	2486	343207780066977
487	2471	343207780928073
487	2442	343207781770798
487	2428	343207782577237
484	2431	343207783416800
478	2443	343207784239145
474	2453	343207784939320
473	2464	343207785796266
471	2481	343207786608897
469	2491	343207787383089
465	2493	343207788149270
459	2485	343207788964139
455	2459	343207789807456
450	2438	343207790637782
445	2433	343207791444960
439	2441	343207792255029
436	2463	343207793097070
432	2490	343207793996472
428	2505	343207794830371
423	2516	343207795731941
418	2518	343207796545488
414	2500	343207797357077
409	2473	343207798201690
408	2454	343207799013008
410	2444	343207799967816
413	2458	343207800827643
419	2477	343207801564974
425	2494	343207802372992
428	2509	343207803189678
427	2517	343207804009826
423	2514	343207804843812
420	2497	343207805690047
415	2471	343207806485815
411	2450	343207807297039
409	2441	343207808047341
410	2448	343207808856718
417	2467	343207809690518
424	2497	343207810514994
433	2517	343207811321305
441	2527	343207811938966
448	2530	343207812799745
453	2523	343207813637849
452	2498	343207814455647
448	2474	343207815286105
444	2463	343207816092601
440	2466	343207816924067
435	2487	343207817927869
431	2510	343207818777582
428	2528	343207819582597
424	2539	343207820315298
422	2539	343207821125350
418	2528	343207821941490
414	2505	343207822788405
410	2480	343207823616315
405	2469	343207824432761
400	2474	343207825261982
395	2495	343207826070437
392	2516	343207826905954
393	2537	343207827937392
394	2545	343207828690792
395	2544	343207829504554
397	2535	343207830329339
403	2509	343207831135113
409	2489	343207831948994
414	2476	343207832808530
413	2478	343207833640382
410	2489	343207834454653
409	2504	343207835258160
410	2520	343207836063751
412	2526	343207836899896
415	2521	343207837755356
421	2505	343207838583390
423	2482	343207839333969
428	2457	343207840164745
436	2436	343207840977342
444	2431	343207841810328
455	2439	343207842613843
463	2456	343207843228707
469	2468	343207844064054
475	2483	343207844921614
481	2494	343207845758636
481	2487	343207846565700
484	2468	343207847369805
479	2442	343207848199940
474	2427	343207849010375
469	2424	343207849858305
465	2437	343207850691008
462	2451	343207851499281
461	2471	343207852322933
461	2489	343207853149996
458	2500	343207854100516
456	2499	343207854960490
451	2474	343207855713189
447	2459	343207856530557
447	2446	343207857290644
449	2444	343207858127241
449	2455	343207858961856
444	2478	343207859819266
440	2503	343207860630412
434	2522	343207861440929
428	2530	343207862263264
427	2531	343207863088929
426	2516	343207863984482
430	2489	343207864747502
432	2475	343207865560021
434	2469	343207866231908
434	2474	343207867055173
432	2495	343207868023722
429	2513	343207868869112
427	2529	343207869703193
423	2539	343207870342899
420	2538	343207871148051
415	2528	343207871971955
410	2505	343207872723680
407	2481	343207873562807
404	2464	343207874407879
400	2465	343207875221750
397	2478	343207876036334
394	2496	343207876895281
390	2516	343207877798742
387	2533	343207878626535
387	2537	343207879450164
388	2530	343207880262493
384	2507	343207881070568
384	2481	343207881926837
391	2467	343207882771642
395	2465	343207883601424
404	2477	343207884422369
411	2495	343207885079242
415	2508	343207885923277
418	2520	343207886781036
420	2526	343207887588681
425	2517	343207888418977
425	2495	343207889090989
421	2473	343207889922354
418	2455	343207890784573
418	2453	343207891613610
420	2464	343207892423475
424	2485	343207893082403
428	2507	343207893995351
428	2524	343207894831677
428	2528	343207895636163
430	2520	343207896467704
425	2498	343207897279305
421	2472	343207898108653
417	2452	343207898939530
415	2439	343207899777032
415	2444	343207900591240
414	2466	343207901423145
412	2493	343207902232369
415	2511	343207903102108
412	2511	343207903991078
409	2502	343207904829294
404	2484	343207905636621
400	2459	343207906458460
397	2439	343207907265013
394	2436	343207908105587
395	2443	343207908969819
397	2461	343207909810552
394	2480	343207910617982
390	2497	343207911424641
386	2507	343207912233510
383	2504	343207913115231
383	2488	343207914026334
383	2462	343207914867886
383	2448	343207915770085
389	2450	343207916546745
391	2463	343207917335686
387	2479	343207918140191
386	2494	343207918957147
386	2507	343207919792459
385	2511	343207920601753
387	2504	343207921428572
390	2487	343207922238179
390	2459	343207923104250
387	2435	343207923996281
384	2425	343207924818805
382	2434	343207925604644
379	2454	343207926441728
380	2476	343207927225450
384	2492	343207928059379
386	2503	343207928916221
388	2499	343207929751522
387	2485	343207930560080
386	2460	343207931381597
386	2441	343207932190718
383	2438	343207933114463
382	2451	343207934028250
387	2466	343207934863757
391	2484	343207935696292
394	2505	343207936460783
394	2511	343207937276736
390	2504	343207938108339
386	2489	343207938966191
381	2461	343207939804411
378	2442	343207940617843
374	2438	343207941427100
374	2444	343207942237198
375	2456	343207943111678
373	2474	343207944027087
369	2493	343207944861934
367	2508	343207945696591
366	2506	343207946523517
362	2493	343207947331589
357	2467	343207948163492
355	2449	343207948952845
352	2445	343207949843716
347	2457	343207950657791
343	2474	343207951488080
339	2491	343207952294187
336	2500	343207953080514
336	2503	343207953992325
333	2499	343207954836735
333	2483	343207955644227
339	2460	343207956467320
346	2436	343207957277535
350	2427	343207958083578
351	2439	343207958939528
346	2459	343207959776403
344	2487	343207960584036
343	2509	343207961394249
343	2519	343207961988443
342	2517	343207962826781
337	2504	343207963773465
334	2478	343207964560291
330	2456	343207965369301
327	2440	343207966113907
324	2440	343207966950405
320	2461	343207967910575
317	2488	343207968799433
316	2510	343207969617746
317	2524	343207970349174
318	2526	343207971172093
319	2512	343207971980376
317	2484	343207972794654
316	2467	343207973646415
313	2458	343207974463974
316	2462	343207975278715
322	2476	343207976038158
328	2495	343207976876881
332	2514	343207977786865
335	2529	343207978614270
334	2524	343207979422139
336	2505	343207980230757
340	2479	343207981054943
343	2457	343207981898513
344	2443	343207982740914
344	2447	343207983588423
347	2465	343207984416308
350	2488	343207985228878
352	2504	343207986032567
351	2512	343207986867852
349	2511	343207987703610
346	2492	343207988527099
341	2470	343207989117845
339	2457	343207989952657
335	2445	343207990811066
332	2441	343207991617022
333	2447	343207992428705
335	2463	343207993228538
334	2483	343207994041931
333	2497	343207994880931
328	2497	343207995733562
325	2488	343207996479058
324	2476	343207997082354
322	2455	343207998065289
323	2442	343207998908442
324	2434	343207999507831
324	2439	343208000292256
325	2455	343208001105431
322	2477	343208001937860
317	2498	343208002968727
313	2504	343208003886234
310	2497	343208004781105
306	2476	343208005605455
303	2450	343208006414773
300	2430	343208007222353
301	2418	343208008120792
304	2426	343208008958776
312	2442	343208009805193
314	2460	343208010624058
315	2477	343208011433596
312	2491	343208012241456
309	2496	343208013109930
304	2482	343208013985157
302	2454	343208014821820
300	2437	343208015624586
301	2428	343208016430392
298	2437	343208017080765
300	2450	343208018062648
302	2471	343208018909104
308	2485	343208019744508
311	2490	343208020328043
315	2490	343208021142178
318	2481	343208021972055
314	2455	343208022826986
315	2433	343208023656279
317	2422	343208024481885
320	2422	343208025331255
326	2438	343208026142565
333	2458	343208026975307
341	2474	343208027836486
347	2485	343208028622080
359	2486	343208029431339
373	2473	343208030236058
383	2456	343208031040448
388	2434	343208031874460
388	2430	343208032616735
385	2432	343208033429607
383	2440	343208034246341
385	2455	343208034868317
387	2469	343208035701251
392	2481	343208036508637
392	2480	343208037305466
390	2470	343208038141700
387	2457	343208038969871
384	2434	343208039820655
384	2414	343208040630297
384	2410	343208041431893
387	2422	343208042268136
383	2443	343208043105652
382	2465	343208044001526
378	2480	343208044814313
375	2488	343208045371946
374	2484	343208046179730
371	2467	343208047005167
367	2442	343208047835803
364	2417	343208048669589
362	2407	343208049482983
358	2412	343208050291599
355	2432	343208051099592
351	2457	343208051959378
350	2475	343208052801441
346	2485	343208053628129
347	2486	343208054462768
350	2470	343208055278309
355	2447	343208056087420
354	2435	343208056946521
352	2430	343208057787681
351	2431	343208058613305
351	2445	343208059419245
354	2465	343208060083277
354	2478	343208060922503
350	2489	343208061840549
346	2492	343208062651699
343	2472	343208063477965
341	2445	343208064092004
342	2426	343208064929807
338	2404	343208065771968
336	2401	343208066590572
339	2411	343208067413888
343	2427	343208068219446
348	2443	343208069043649
355	2457	343208069874993
363	2458	343208070704689
378	2452	343208071532981
392	2440	343208072340583
401	2415	343208073082146
404	2398	343208073996107
399	2391	343208074832972
399	2397	343208075640071
403	2413	343208076469289
411	2431	343208077279886
427	2449	343208078170554
442	2458	343208078984928
460	2458	343208079949613
474	2442	343208080716779
485	2418	343208081549723
493	2400	343208082366558
494	2397	343208083191454
488	2404	343208084036142
486	2425	343208084849424
489	2448	343208085654865
497	2464	343208086455237
505	2470	343208087263666
512	2462	343208088114972
529	2442	343208088977349
549	2417	343208089816533
564	2392	343208090627030
568	2384	343208091450304
563	2392	343208092267422
561	2409	343208093130854
561	2430	343208094100209
566	2455	343208094943893
574	2472	343208095774617
584	2467	343208096602660
591	2451	343208097343265
599	2427	343208098172669
605	2405	343208098987415
608	2395	343208099822927
604	2402	343208100634087
597	2424	343208101463290
590	2452	343208102272900
584	2476	343208103116965
579	2490	343208104092856
574	2482	343208104937431
571	2461	343208105721321
571	2436	343208106544452
571	2421	343208107355348
565	2417	343208108088389
560	2426	343208108948227
560	2447	343208109789010
554	2473	343208110596972
550	2493	343208111400462
544	2501	343208111988282
540	2501	343208112816803
538	2487	343208113581248
536	2466	343208114393175
532	2441	343208115202803
529	2428	343208116009463
525	2430	343208116849074
519	2445	343208117660186
518	2464	343208118508893
517	2483	343208119317679
511	2496	343208120129143
507	2501	343208120980353
502	2492	343208121829405
496	2473	343208122634938
495	2445	343208123483562
492	2431	343208124311518
488	2435	343208125130682
486	2454	343208125984026
481	2473	343208126818810
477	2491	343208127628579
474	2503	343208128474590
471	2504	343208129087856
470	2496	343208129930150
469	2477	343208130738191
464	2452	343208131548571
462	2432	343208132357874
458	2422	343208133206082
455	2433	343208134042686
450	2452	343208134852208
446	2469	343208135679345
443	2487	343208136500275
439	2493	343208137269808
437	2487	343208138129758
436	2466	343208138966383
431	2437	343208139850021
428	2416	343208140655827
426	2405	343208141465520
426	2414	343208142276818
420	2435	343208143119469
415	2457	343208144017827
410	2473	343208144858441
408	2481	343208145680978
406	2476	343208146491030
405	2455	343208147295012
405	2431	343208148136689
402	2413	343208148976636
404	2398	343208149817773
405	2400	343208150643862
402	2415	343208151458976
398	2438	343208152274281
393	2459	343208153132518
391	2468	343208154029176
389	2466	343208154926254
386	2452	343208155745121
383	2428	343208156557467
383	2408	343208157361119
382	2403	343208158187457
378	2415	343208158995568
374	2435	343208159829675
370	2453	343208160610696
366	2464	343208161421844
362	2468	343208162010953
358	2468	343208162859329
355	2459	343208163684640
351	2440	343208164495244
348	2414	343208165088243
346	2397	343208165929691
343	2390	343208166762574
338	2401	343208167590333
335	2423	343208168237005
333	2438	343208169047826
333	2454	343208169878818
338	2460	343208170673138
344	2455	343208171481388
348	2439	343208172313517
351	2417	343208173143055
352	2392	343208174037556
348	2383	343208174912585
346	2394	343208175748491
350	2413	343208176492836
355	2431	343208177318793
356	2449	343208178206619
352	2454	343208179018431
349	2443	343208179873004
348	2423	343208180679727
348	2396	343208181489965
348	2378	343208182277950
347	2372	343208183133603
347	2378	343208184076115
347	2388	343208184824634
348	2396	343208185553742
355	2409	343208186355195
360	2421	343208186979057
363	2426	343208187822597
368	2414	343208188654282
380	2390	343208189481721
388	2370	343208190287887
388	2364	343208191102846
383	2372	343208192062698
381	2389	343208192876073
375	2405	343208193693592
373	2423	343208194529686
369	2436	343208195232113
369	2438	343208196048909
374	2429	343208196898915
383	2406	343208197742030
391	2383	343208198574364
400	2372	343208199405324
408	2373	343208200222915
414	2389	343208201037343
417	2413	343208201888802
422	2433	343208202727562
424	2444	343208203556870
425	2450	343208204386505
426	2442	343208205079427
426	2422	343208205732033
427	2401	343208206558410
425	2382	343208207364380
422	2378	343208207978643
418	2385	343208208814359
413	2402	343208209615523
412	2424	343208210499590
411	2439	343208211303414
407	2449	343208211989942
405	2449	343208212817304
403	2437	343208213651769
403	2411	343208214509698
413	2388	343208215322028
427	2376	343208216107412
443	2378	343208216941476
462	2393	343208217555459
476	2405	343208218234158
487	2418	343208219037892
496	2431	343208219828625
500	2433	343208220640655
498	2423	343208221451756
495	2400	343208222260419
493	2373	343208223141516
489	2351	343208224038911
496	2345	343208224736224
503	2350	343208225569550
518	2366	343208226377476
530	2387	343208227184632
539	2409	343208228131913
545	2425	343208228972542
552	2422	343208229812103
557	2408	343208230638584
560	2387	343208231448969
561	2377	343208232264164
561	2380	343208233144517
557	2396	343208234041607
557	2413	343208234860321
565	2428	343208235682508
569	2437	343208236497620
564	2436	343208237283587
557	2427	343208238137159
550	2410	343208238971803
548	2386	343208239808440
547	2361	343208240813909
544	2357	343208241598582
544	2365	343208242411361
545	2381	343208243237502
545	2397	343208244060778
545	2416	343208244893639
542	2425	343208245755789
534	2420	343208246568777
531	2400	343208247360299
526	2381	343208248263831
520	2372	343208249077417
514	2370	343208249909004
511	2385	343208250763385
514	2403	343208251495949
517	2419	343208252309113
516	2429	343208253081598
510	2427	343208253972478
506	2413	343208254816137
504	2388	343208255638235
501	2370	343208256450692
496	2354	343208257080136
491	2348	343208257738994
489	2351	343208258567984
487	2361	343208259378168
488	2378	343208260108585
488	2393	343208260948573
487	2404	343208261780401
484	2410	343208262600928
482	2399	343208263431049
477	2374	343208264246242
474	2348	343208265080907
477	2333	343208265920648
479	2329	343208266621553
477	2340	343208267420622
476	2356	343208268237190
475	2371	343208269050905
476	2386	343208269902424
480	2392	343208270691181
478	2383	343208271502704
474	2362	343208272311744
473	2340	343208273140748
475	2320	343208274028490
478	2322	343208274934310
483	2336	343208275770050
489	2355	343208276487918
494	2373	343208277328438
496	2388	343208278219934
492	2395	343208279031595
486	2390	343208279885441
481	2373	343208280694440
477	2350	343208281508921
473	2338	343208282311598
469	2340	343208283140098
467	2359	343208284084988
464	2381	343208284832852
460	2401	343208285555242
457	2419	343208286363066
456	2427	343208286991065
456	2424	343208287840895
454	2409	343208288678971
450	2385	343208289518087
449	2369	343208290331423
445	2366	343208291117920
442	2378	343208291966376
440	2399	343208292803901
440	2422	343208293485900
443	2437	343208294328895
445	2445	343208295138483
449	2442	343208295973653
452	2427	343208296810289
455	2403	343208297620176
453	2379	343208298450563
450	2367	343208299281394
446	2363	343208300093094
442	2373	343208300931701
438	2389	343208301785413
434	2406	343208302592345
428	2423	343208303419394
424	2431	343208304266489
423	2425	343208305078696
423	2402	343208305740436
425	2384	343208306566679
428	2373	343208307376041
431	2370	343208308200750
431	2383	343208309029764
436	2404	343208309842157
440	2424	343208310648355
440	2440	343208311478181
436	2450	343208312287553
431	2449	343208313079317
427	2432	343208313993253
422	2406	343208314834553
426	2390	343208315647382
433	2386	343208316363157
441	2394	343208317173840
450	2417	343208318140311
459	2440	343208318978876
464	2456	343208319816085
465	2467	343208320615123
462	2464	343208321447870
460	2448	343208322261710
459	2419	343208323150892
463	2400	343208324045045
464	2394	343208324742307
459	2401	343208325555163
455	2414	343208326385331
449	2431	343208327193699
448	2448	343208328114440
456	2456	343208328956469
471	2454	343208329770594
486	2443	343208330580329
494	2418	343208331405800
501	2400	343208332217313
503	2387	343208333141220
502	2389	343208334058012
499	2401	343208334887827
495	2416	343208335696379
490	2433	343208336501116
486	2440	343208337313585
485	2438	343208338143872
482	2420	343208339001497
477	2392	343208339889293
472	2377	343208340673124
468	2374	343208341497785
470	2383	343208342305829
478	2398	343208343143129
487	2419	343208344108992
492	2431	343208344950364
496	2440	343208345787582
499	2434	343208346615552
500	2418	343208347374575
499	2392	343208348209185
498	2376	343208349036760
497	2372	343208349845566
492	2384	343208350653895
487	2402	343208351483565
484	2421	343208352292560
482	2438	343208353079902
485	2445	343208354003812
500	2440	343208354856586
512	2420	343208355625359
518	2396	343208356385771
521	2378	343208357197115
517	2371	343208358157252
518	2379	343208359026208
526	2400	343208359872859
532	2415	343208360659326
537	2426	343208361468289
545	2435	343208362368609
550	2433	343208363208771
552	2421	343208364014322
554	2399	343208364845900
552	2378	343208365655225
554	2370	343208366458116
557	2383	343208367269030
560	2411	343208368205009
557	2437	343208369033863
559	2455	343208369912980
569	2461	343208370690850
581	2457	343208371514476
592	2441	343208372324753
603	2416	343208373079541
617	2402	343208374000277
628	2399	343208374860451
630	2411	343208375673426
624	2430	343208376499804
623	2451	343208377312231
621	2473	343208378257851
619	2486	343208379068712
614	2482	343208379903971
608	2465	343208380623720
604	2442	343208381384031
600	2424	343208382199335
599	2417	343208383140611
601	2434	343208384115870
605	2454	343208384878032
610	2474	343208385686726
621	2492	343208386516933
630	2500	343208387301063
636	2497	343208388133181
639	2482	343208388992659
635	2456	343208389829126
628	2434	343208390634886
622	2427	343208391437872
614	2437	343208392244674
608	2458	343208393139491
608	2481	343208394052881
610	2497	343208394889903
610	2504	343208395686534
610	2500	343208396511096
607	2483	343208397272620
605	2456	343208398158999
603	2439	343208399010856
604	2434	343208399842203
605	2444	343208400655228
603	2459	343208401484871
600	2477	343208402300936
596	2492	343208403166720
589	2498	343208404053230
583	2490	343208404857599
581	2473	343208405556381
580	2452	343208406378215
583	2431	343208407185939
589	2426	343208408147051
596	2440	343208409012060
600	2459	343208409850509
608	2480	343208410656731
621	2497	343208411459339
634	2507	343208412265887
641	2501	343208413072553
638	2481	343208413992065
632	2456	343208414943130
631	2443	343208415901533
639	2444	343208416814640
648	2460	343208417626641
652	2477	343208418455768
661	2496	343208419285916
674	2507	343208420095468
683	2511	343208420879701
686	2501	343208421682139
689	2478	343208422380932
688	2457	343208423174988
681	2441	343208424083044
681	2440	343208424932900
685	2457	343208425772937
691	2482	343208426505782
697	2501	343208427313933
705	2518	343208428130940
712	2528	343208428996992
720	2523	343208429838183
718	2503	343208430639554
715	2476	343208431499907
714	2459	343208432307649
708	2453	343208433079520
703	2468	343208434009254
702	2494	343208434828510
704	2517	343208435636642
707	2536	343208436394173
712	2545	343208437207871
713	2539	343208438153657
712	2517	343208439011213
714	2487	343208440026145
710	2474	343208440831875
704	2477	343208441670730
702	2489	343208442481639
704	2508	343208443135577
704	2525	343208444049021
704	2537	343208444889476
707	2545	343208445695899
711	2542	343208446526045
713	2526	343208447335306
715	2499	343208448163565
711	2483	343208449016150
705	2479	343208449843448
706	2490	343208450648080
718	2511	343208451475214
733	2530	343208452282247
746	2546	343208453080703
755	2550	343208453996243
755	2541	343208454894552
752	2517	343208455635727
746	2493	343208456461202
746	2481	343208457274474
752	2480	343208458168456
758	2491	343208459005573
765	2508	343208459840870
771	2524	343208460645905
776	2534	343208461408118
778	2539	343208462221205
779	2531	343208463149362
776	2508	343208464026978
771	2483	343208464870218
765	2468	343208465655561
758	2464	343208466479688
752	2470	343208467294776
747	2487	343208468146006
747	2500	343208469003203
749	2513	343208469806976
748	2523	343208470613083
745	2518	343208471447658
737	2497	343208472280619
728	2471	343208473081474
723	2456	343208473996762
721	2451	343208474809913
720	2463	343208475618541
716	2485	343208476450804
709	2504	343208477259212
701	2519	343208478205113
692	2524	343208479037114
687	2515	343208479876774
683	2493	343208480636753
680	2469	343208481461346
682	2449	343208482274825
685	2443	343208483165424
686	2455	343208484196512
682	2473	343208484896535
677	2487	343208485704930
671	2499	343208486524987
669	2508	343208487315738
673	2500	343208488176318
673	2479	343208489022577
668	2452	343208489859615
662	2437	343208490666511
656	2433	343208491473848
647	2442	343208492284105
640	2463	343208493082936
634	2481	343208493999199
630	2494	343208494841118
632	2500	343208495645147
635	2493	343208496479244
634	2475	343208497283357
628	2448	343208498172143
620	2431	343208499007409
614	2429	343208499852055
614	2439	343208500659447
614	2459	343208501492880
616	2478	343208502177294
621	2494	343208503133693
636	2500	343208504034554
646	2496	343208504885713
654	2473	343208505643123
659	2449	343208506456602
662	2429	343208507267701
663	2425	343208508012220
660	2436	343208508926803
658	2459	343208509768631
664	2480	343208510578525
675	2499	343208511403013
690	2512	343208512208338
701	2516	343208513080730
707	2503	343208514010069
708	2476	343208514843538
703	2461	343208515629385
697	2459	343208516390446
692	2471	343208517204422
682	2494	343208518141721
675	2517	343208518990986
667	2535	343208519823801
663	2545	343208520634172
655	2541	343208521466270
648	2523	343208522274618
643	2492	343208523173213
636	2472	343208524031471
630	2462	343208524833255
624	2470	343208525619120
619	2487	343208526417269
613	2510	343208527194200
605	2536	343208528238343
602	2546	343208529037950
602	2541	343208529849025
608	2525	343208530615469
613	2500	343208531408670
615	2480	343208532189026
613	2472	343208533117162
605	2481	343208534014032
602	2497	343208534828481
604	2514	343208535608032
612	2531	343208536404521
618	2539	343208537183609
615	2536	343208538145654
614	2515	343208539007642
614	2486	343208540016351
607	2471	343208541146882
604	2478	343208542010991
601	2496	343208542854624
605	2517	343208543694853
611	2533	343208544531543
624	2542	343208545279812
634	2540	343208546094342
646	2530	343208546921954
655	2507	343208547726930
658	2486	343208548527208
652	2474	343208549366850
645	2477	343208550177345
639	2496	343208551009927
632	2522	343208551911607
626	2541	343208552737716
625	2552	343208553571301
627	2552	343208554394395
626	2536	343208555215305
623	2510	343208555887152
619	2492	343208556724007
611	2479	343208557543516
607	2476	343208558369569
601	2488	343208559176233
594	2510	343208560019409
589	2528	343208560858667
591	2544	343208561692607
594	2550	343208562502424
593	2543	343208563300108
594	2524	343208563995198
595	2503	343208564803400
596	2490	343208565615206
599	2485	343208566444738
600	2497	343208567252908
598	2515	343208568144944
601	2530	343208568999577
610	2544	343208569839013
621	2552	343208570648222
632	2547	343208571479676
643	2532	343208572277264
652	2502	343208573186692
655	2483	343208574096797
651	2481	343208574939076
646	2499	343208575830003
648	2526	343208576520889
655	2544	343208577294367
665	2564	343208578229874
675	2570	343208579056063
683	2562	343208579889863
684	2539	343208580631876
684	2512	343208581444612
684	2494	343208582254770
681	2488	343208583172715
677	2508	343208584246931
684	2530	343208585068029
695	2548	343208585907732
708	2559	343208586728659
713	2560	343208587537721
710	2548	343208588368677
705	2526	343208589032494
700	2504	343208589871560
696	2489	343208590680245
698	2486	343208591511574
702	2500	343208592323596
703	2521	343208593082100
704	2539	343208594008151
703	2552	343208594858138
700	2557	343208595662864
693	2550	343208596492608
690	2530	343208597282618
691	2501	343208598191146
693	2483	343208599027678
699	2477	343208599875193
706	2485	343208600681068
712	2503	343208601522773
715	2525	343208602304500
710	2537	343208603154599
704	2542	343208604103710
705	2533	343208604806057
710	2514	343208605537016
720	2489	343208606328556
730	2468	343208607105686
742	2456	343208608045943
749	2458	343208608885973
755	2471	343208609669650
758	2486	343208610457807
758	2503	343208611250503
754	2516	343208611876342
748	2522	343208612660399
740	2517	343208613480226
733	2497	343208614260739
730	2475	343208615041453
726	2463	343208615898717
723	2460	343208616709272
717	2472	343208617528345
714	2487	343208618152594
710	2499	343208618988148
703	2513	343208619823036
695	2520	343208620626519
688	2515	343208621434799
680	2496	343208622248473
674	2466	343208623178725
666	2447	343208624157285
661	2446	343208625034534
654	2460	343208625940166
647	2479	343208626779337
642	2498	343208627587105
637	2510	343208628347672
633	2508	343208629160367
625	2495	343208629996413
618	2472	343208630652351
613	2449	343208631457600
607	2432	343208632209431
603	2421	343208633078484
602	2427	343208633994467
601	2437	343208634777818
599	2447	343208635600941
597	2460	343208636411962
596	2469	343208637218897
590	2465	343208638177219
585	2448	343208639018645
582	2419	343208639962486
583	2407	343208640815721
581	2405	343208641563262
575	2416	343208642373315
569	2434	343208643159442
567	2454	343208644059518
568	2471	343208644901774
570	2480	343208645707948
570	2472	343208646515805
568	2449	343208647292174
562	2425	343208648054288
558	2413	343208648897581
552	2412	343208649706200
546	2419	343208650530394
547	2435	343208651347097
547	2453	343208652155656
542	2471	343208653121848
539	2480	343208654021758
534	2477	343208654866322
527	2462	343208655665215
522	2437	343208656476861
518	2420	343208657289180
513	2421	343208658189888
510	2434	343208659027671
511	2453	343208659788429
510	2470	343208660611022
510	2486	343208661420508
517	2500	343208662235353
525	2499	343208663180198
530	2481	343208664039821
528	2456	343208664872141
524	2439	343208665705700
521	2434	343208666488371
519	2442	343208667293298
519	2461	343208668162166
518	2480	343208669010540
514	2495	343208669907844
509	2499	343208670711843
502	2493	343208671520646
500	2474	343208672283223
503	2449	343208673192136
506	2429	343208674092727
509	2425	343208674931105
507	2437	343208675783862
509	2457	343208676531287
512	2476	343208677312815
514	2494	343208678240718
515	2502	343208679059948
514	2495	343208679943955
514	2475	343208680657676
513	2454	343208681467936
509	2438	343208682281943
508	2436	343208683202343
510	2453	343208684147464
516	2476	343208684792391
520	2493	343208685618529
524	2508	343208686430157
523	2514	343208687241005
518	2506	343208688189229
515	2486	343208689029710
511	2462	343208689837082
506	2450	343208690661605
501	2450	343208691467237
501	2464	343208692277222
501	2483	343208693170486
500	2500	343208694076529
496	2515	343208694914974
494	2518	343208695718188
493	2513	343208696545752
493	2494	343208697269116
493	2467	343208698196710
490	2449	343208699001587
486	2446	343208699832684
482	2455	343208700664598
482	2471	343208701474128
481	2491	343208702284023
481	2507	343208703186730
476	2514	343208704083590
471	2505	343208704924852
468	2481	343208705556333
466	2461	343208706361195
468	2446	343208707167680
470	2442	343208708092800
470	2450	343208708936730
469	2471	343208709742663
474	2492	343208710563435
475	2507	343208711375223
472	2513	343208711964106
474	2509	343208712810607
481	2496	343208713649448
492	2473	343208714463209
504	2449	343208715267113
515	2439	343208716073669
521	2444	343208716913174
522	2462	343208717739518
518	2483	343208718563990
515	2503	343208719374488
508	2518	343208720134383
503	2523	343208720971823
498	2517	343208721804161
491	2494	343208722633007
486	2470	343208723460625
482	2459	343208724276110
480	2462	343208725080500
476	2476	343208725923793
473	2494	343208726564900
468	2509	343208727397468
464	2523	343208728228596
460	2528	343208729035510
458	2520	343208729883338
463	2497	343208730685323
469	2472	343208731493623
474	2456	343208732321760
482	2452	343208733079891
495	2463	343208733996096
503	2479	343208734825761
