1649	2569	344254813209070
1646	2560	344254814021449
1644	2544	344254814831751
1638	2518	344254815660907
1629	2498	344254816478216
1623	2490	344254817292629
1630	2495	344254818313581
1643	2512	344254819150883
1656	2529	344254819990571
1661	2542	344254820815020
1658	2552	344254821622486
1643	2553	344254822429140
1625	2539	344254823325185
1625	2512	344254824159628
1643	2489	344254824955824
1666	2476	344254825708155
1679	2476	344254826523689
1677	2495	344254827109524
1670	2512	344254828025867
1653	2537	344254828816623
1639	2554	344254829631797
1632	2560	344254830433506
1623	2554	344254831184708
1616	2538	344254832022302
1615	2513	344254832841318
1610	2496	344254833679043
1593	2495	344254834489538
1589	2505	344254835289347
1579	2519	344254836121994
1570	2535	344254836944231
1559	2554	344254837767518
1549	2566	344254838599851
1543	2564	344254839406667
1534	2550	344254840207541
1519	2524	344254841044610
1504	2506	344254841820758
1489	2504	344254842645246
1478	2519	344254843470365
1467	2540	344254844307585
1452	2551	344254845061129
1441	2553	344254845835121
1428	2548	344254846642901
1428	2539	344254847468437
1436	2520	344254848391328
1438	2497	344254849202948
1434	2472	344254849884275
1426	2461	344254850697140
1412	2461	344254851507430
1408	2475	344254852326051
1412	2501	344254853287351
1410	2522	344254854082244
1398	2535	344254854882094
1384	2531	344254855690022
1374	2513	344254856455318
1366	2490	344254857278796
1362	2466	344254858177459
1351	2455	344254859023653
1338	2462	344254859824832
1322	2480	344254860632713
1315	2505	344254861413099
1318	2532	344254862241582
1329	2548	344254863078788
1325	2553	344254863936302
1314	2540	344254864589789
1304	2522	344254865402217
1296	2499	344254866211406
1293	2491	344254867070778
1296	2494	344254867855145
1291	2503	344254868688664
1279	2514	344254869412070
1274	2525	344254870221591
1270	2539	344254870834523
1260	2547	344254871661553
1246	2548	344254872517288
1240	2537	344254873346265
1252	2511	344254874172861
1282	2485	344254874940395
1329	2470	344254875741898
1362	2467	344254876562349
1360	2477	344254877369875
1350	2503	344254878373711
1356	2523	344254879092418
1369	2537	344254879925341
1399	2540	344254880731751
1436	2525	344254881553913
1477	2504	344254882360534
1523	2472	344254883314860
1552	2459	344254884147467
1567	2464	344254884982359
1574	2479	344254885774322
1583	2489	344254886602887
1578	2497	344254887414604
1584	2513	344254888373356
1621	2527	344254889135182
1693	2526	344254889969924
1788	2503	344254890777383
1863	2477	344254891587983
1905	2453	344254892394295
1924	2449	344254893227969
1931	2465	344254894117569
1920	2490	344254894953967
1905	2512	344254895763073
1905	2526	344254896524296
1921	2528	344254897334538
1961	2507	344254898357609
2015	2484	344254899201483
2088	2468	344254899962287
2131	2464	344254900774888
2157	2469	344254901411357
2172	2481	344254902062104
2180	2491	344254902862571
2184	2497	344254903709414
2165	2498	344254904366112
2153	2497	344254905197872
2148	2486	344254906083528
2133	2464	344254906918147
2114	2447	344254907721221
2094	2435	344254908354312
2084	2438	344254909198914
2070	2458	344254910036897
2060	2479	344254910834498
2052	2488	344254911641040
2035	2486	344254912447643
2024	2476	344254913336990
2006	2466	344254914181153
1988	2452	344254915012595
1980	2427	344254915846742
1962	2409	344254916616457
1942	2403	344254917393524
1930	2414	344254918379604
1921	2436	344254919206639
1902	2461	344254920045588
1894	2485	344254920862515
1895	2499	344254921640084
1894	2496	344254922451078
1893	2484	344254923333695
1885	2459	344254924174614
1867	2446	344254924994851
1865	2452	344254925821602
1867	2470	344254926628198
1876	2492	344254927434658
1887	2516	344254928381915
1893	2531	344254929124680
1901	2542	344254929962369
1910	2545	344254930763520
1905	2531	344254931567584
1890	2506	344254932369848
1893	2485	344254933229698
1890	2478	344254934073677
1901	2484	344254934876577
1920	2505	344254935677439
1932	2531	344254936491583
1918	2552	344254937298973
1897	2565	344254938191500
1876	2565	344254939052413
1858	2549	344254939637862
1842	2531	344254940460587
1826	2507	344254941268635
1808	2493	344254941866512
1795	2492	344254942668045
1780	2505	344254943493623
1784	2527	344254944306951
1795	2556	344254945159773
1802	2579	344254945883388
1803	2591	344254946690007
1788	2592	344254947491449
1776	2579	344254948392914
1767	2553	344254949210323
1750	2541	344254950004874
1742	2546	344254950809370
1752	2568	344254951616729
1751	2593	344254952419680
1749	2613	344254953338358
1737	2632	344254954133686
1727	2643	344254954963729
1718	2649	344254955773898
1708	2643	344254956497550
1694	2623	344254957325312
1691	2597	344254958349354
1708	2600	344254959187883
1728	2619	344254960017672
1734	2643	344254960812377
1730	2669	344254961622727
1712	2693	344254962448219
1702	2712	344254963335368
1694	2713	344254964174682
1679	2694	344254965064852
1668	2665	344254965891252
1669	2651	344254966621337
1666	2648	344254967426433
1661	2659	344254968383314
1657	2680	344254969201534
1652	2703	344254970063859
1647	2717	344254970840870
1642	2721	344254971613802
1633	2721	344254972374826
1614	2713	344254973332822
1599	2693	344254974176119
1583	2665	344254974965189
1569	2657	344254975777017
1576	2661	344254976583917
1577	2678	344254977383997
1561	2707	344254978379558
1556	2729	344254979101021
1550	2745	344254979929898
1537	2754	344254980716636
1524	2741	344254981523970
1517	2714	344254982345474
1505	2702	344254983303450
1489	2704	344254984160363
1475	2718	344254985070709
1458	2741	344254985885402
1450	2760	344254986694246
1453	2777	344254987468606
1460	2783	344254988394863
1463	2774	344254989211706
1457	2749	344254990043881
1447	2725	344254990850671
1439	2711	344254991595309
1435	2711	344254992421307
1423	2722	344254993338478
1419	2744	344254994176074
1422	2773	344254995029444
1423	2795	344254995835436
1411	2806	344254996641992
1399	2805	344254997412578
1383	2782	344254998387709
1367	2753	344254999212022
1351	2740	344254999969635
1342	2745	344255000780808
1333	2766	344255001604256
1325	2791	344255002410830
1309	2816	344255003339596
1298	2833	344255004094619
1284	2837	344255004896490
1271	2831	344255005708805
1266	2811	344255006520242
1267	2779	344255007348194
1271	2742	344255008344093
1290	2726	344255009188230
1314	2730	344255010019519
1323	2745	344255010830084
1322	2768	344255011638678
1315	2780	344255012475954
1301	2789	344255013355382
1293	2787	344255014194509
1282	2773	344255015024374
1272	2747	344255015831894
1270	2724	344255016597330
1279	2714	344255017400577
1278	2720	344255018390718
1274	2733	344255019203253
1302	2747	344255020105190
1335	2759	344255020846793
1373	2765	344255021608940
1406	2764	344255022418773
1427	2742	344255023338617
1440	2712	344255024182088
1456	2690	344255024975008
1464	2679	344255025790282
1458	2683	344255026597902
1446	2699	344255027391675
1433	2719	344255028393397
1438	2736	344255029100445
1449	2751	344255029862906
1475	2754	344255030669586
1511	2734	344255031473182
1528	2707	344255032296253
1537	2688	344255033130768
1540	2678	344255033987381
1528	2681	344255034783855
1522	2699	344255035373744
1523	2717	344255036207213
1526	2745	344255037101400
1532	2765	344255038008095
1528	2769	344255038836956
1514	2757	344255039475025
1509	2737	344255040292547
1500	2708	344255041134056
1486	2694	344255041995271
1477	2701	344255042806208
1461	2728	344255043628658
1452	2762	344255044388169
1444	2792	344255045211379
1431	2818	344255046100251
1419	2824	344255046953671
1422	2802	344255047755300
1426	2777	344255048589044
1433	2766	344255049391353
1458	2761	344255050149962
1483	2759	344255050986671
1502	2765	344255051813802
1513	2783	344255052623123
1513	2802	344255053451478
1507	2819	344255054100174
1498	2825	344255054935496
1486	2822	344255055745213
1473	2804	344255056577348
1460	2777	344255057390340
1453	2756	344255058234527
1452	2755	344255059073778
1456	2766	344255059884873
1474	2785	344255060598003
1499	2805	344255061435190
1543	2821	344255062243592
1586	2827	344255063081507
1615	2818	344255063904377
1633	2792	344255064496763
1643	2770	344255065309950
1645	2744	344255066163604
1633	2728	344255066997889
1619	2722	344255067804754
1632	2735	344255068642208
1666	2756	344255069421638
1710	2772	344255070230401
1758	2786	344255071079424
1797	2788	344255071887052
1837	2782	344255072697774
1881	2764	344255073541014
1913	2735	344255074351402
1920	2725	344255074982341
1907	2724	344255075801776
1905	2735	344255076607433
1909	2757	344255077413680
1925	2781	344255078392516
1933	2793	344255079107082
1940	2795	344255079939176
1955	2791	344255080773390
1965	2777	344255081592047
1964	2749	344255082406212
1955	2726	344255083225483
1946	2718	344255084068038
1927	2724	344255084877257
1910	2741	344255085702710
1896	2765	344255086516649
1883	2787	344255087326194
1861	2813	344255088343705
1842	2819	344255089189099
1841	2803	344255090031979
1850	2775	344255090857968
1855	2762	344255091603695
1857	2761	344255092411007
1852	2780	344255093172675
1846	2799	344255094075784
1827	2826	344255094888152
1821	2840	344255095713046
1829	2847	344255096524208
1844	2843	344255097333089
1873	2815	344255098353373
1900	2791	344255099193694
1923	2781	344255099979128
1939	2770	344255100739091
1935	2773	344255101553302
1922	2782	344255102333389
1909	2796	344255103313204
1888	2805	344255104104133
1872	2809	344255104939565
1854	2804	344255105741879
1838	2786	344255106553497
1827	2758	344255107364577
1808	2734	344255108234842
1792	2732	344255109073360
1773	2741	344255109883080
1768	2751	344255110678498
1768	2762	344255111456312
1761	2772	344255112264817
1751	2784	344255113094219
1737	2787	344255113951647
1720	2776	344255114737100
1702	2750	344255115559969
1686	2729	344255116364770
1669	2724	344255117196183
1669	2735	344255118105538
1683	2760	344255118981496
1702	2785	344255119788339
1713	2805	344255120602603
1735	2818	344255121411318
1744	2818	344255122219554
1732	2802	344255122859441
1720	2780	344255123683856
1707	2751	344255124513658
1698	2740	344255125345381
1692	2747	344255126178989
1691	2770	344255126991397
1697	2794	344255127798422
1706	2813	344255128634661
1707	2830	344255129452292
1702	2836	344255130281545
1699	2818	344255131121579
1702	2789	344255131957060
1697	2774	344255132760578
1693	2765	344255133412355
1691	2759	344255134228719
1681	2763	344255135087108
1665	2778	344255135897101
1661	2791	344255136711630
1656	2797	344255137488139
1644	2801	344255138401125
1634	2795	344255139202498
1627	2781	344255139998363
1622	2756	344255140805804
1614	2727	344255141609865
1596	2709	344255142434382
1579	2714	344255143355767
1571	2738	344255144193171
1556	2770	344255145051104
1541	2796	344255145743926
1532	2813	344255146553581
1523	2822	344255147352608
1503	2813	344255148365910
1487	2787	344255149204426
1480	2770	344255149887643
1478	2771	344255150695570
1479	2785	344255151515861
1496	2817	344255152320070
1524	2850	344255153162348
1549	2877	344255154023751
1555	2891	344255154828392
1541	2887	344255155638899
1544	2874	344255156229733
1564	2852	344255157094122
1587	2825	344255157900764
1601	2807	344255158702901
1607	2802	344255159509712
1606	2817	344255160316111
1604	2841	344255161142663
1601	2862	344255162017315
1592	2878	344255162835920
1579	2885	344255163669141
1580	2874	344255164478090
1587	2850	344255165289384
1599	2820	344255166124767
1617	2802	344255166973840
1630	2799	344255167781239
1623	2813	344255168613219
1610	2829	344255169413425
1600	2846	344255170220830
1583	2856	344255171057872
1567	2855	344255171880658
1552	2845	344255172687509
1544	2824	344255173515453
1542	2793	344255174315657
1536	2763	344255174988766
1523	2746	344255175791831
1518	2749	344255176616613
1515	2771	344255177414412
1509	2802	344255178398925
1506	2826	344255179112907
1505	2843	344255180060360
1512	2845	344255180883098
1503	2829	344255181683590
1490	2801	344255182496372
1480	2775	344255183237420
1468	2765	344255184097031
1454	2772	344255184908734
1453	2792	344255185721554
1451	2831	344255186553796
1444	2882	344255187794511
1438	2910	344255188754026
1449	2897	344255189488111
1467	2872	344255190298551
1497	2848	344255191133188
1522	2841	344255191980865
1549	2847	344255192791210
1568	2866	344255193620663
1574	2892	344255194445898
1560	2914	344255195239765
1544	2926	344255196074321
1542	2924	344255196899053
1550	2905	344255197705293
1557	2877	344255198540928
1584	2852	344255199344710
1630	2836	344255199992982
1667	2833	344255200804034
1705	2840	344255201632866
1729	2850	344255202421920
1739	2861	344255203357608
1744	2871	344255204114741
1745	2874	344255204921328
1741	2868	344255205730181
1734	2844	344255206559564
1724	2821	344255207359441
1705	2795	344255208269820
1701	2785	344255209031871
1711	2789	344255209833421
1727	2805	344255210422634
1732	2815	344255211252375
1731	2813	344255212092829
1717	2808	344255212903340
1699	2802	344255213721064
1689	2792	344255214532706
1702	2767	344255215338229
1720	2744	344255216252220
1725	2739	344255216890095
1720	2739	344255217703812
1708	2750	344255218531895
1691	2766	344255219346733
1676	2782	344255220236537
1662	2792	344255221106420
1649	2794	344255221918305
1638	2781	344255222729664
1623	2754	344255223555901
1613	2730	344255224368711
1598	2714	344255225021433
1587	2712	344255225855253
1578	2719	344255226667176
1580	2738	344255227469773
1578	2763	344255228412778
1568	2780	344255229154869
1558	2787	344255229961482
1545	2779	344255230754885
1540	2755	344255231532146
1548	2727	344255232310824
1567	2708	344255233114648
1591	2696	344255234017352
1625	2699	344255234808128
1650	2712	344255235391438
1664	2729	344255236320047
1670	2748	344255237149711
1657	2754	344255238181672
1645	2743	344255239011492
1648	2722	344255239784354
1654	2697	344255240516247
1670	2671	344255241299027
1688	2643	344255242080619
1704	2627	344255242876283
1726	2632	344255243677598
1748	2649	344255244498917
1758	2668	344255245310423
1755	2682	344255246152174
1739	2684	344255246993631
1731	2669	344255247823247
1745	2643	344255248662614
1779	2618	344255249474507
1817	2600	344255250279031
1824	2594	344255251125072
1821	2601	344255251975567
1806	2615	344255252799753
1797	2629	344255253631250
1788	2637	344255254443705
1771	2637	344255255270382
1752	2623	344255256104807
1734	2601	344255256908599
1719	2573	344255257712177
1708	2545	344255258543096
1714	2535	344255259353516
1731	2541	344255260209870
1745	2554	344255261049896
1762	2564	344255261866882
1779	2569	344255262666833
1799	2573	344255263495148
1810	2570	344255264304399
1814	2559	344255265074318
1812	2536	344255265881051
1796	2518	344255266623384
1779	2510	344255267450028
1760	2524	344255268414389
1741	2549	344255269242797
1734	2577	344255270076254
1742	2596	344255270748827
1750	2601	344255271529701
1763	2593	344255272333275
1783	2568	344255273273264
1791	2545	344255274090827
1793	2529	344255274847837
1788	2523	344255275634642
1776	2531	344255276436451
1764	2553	344255277249725
1768	2576	344255278137333
1764	2591	344255279049207
1746	2602	344255279851790
1728	2605	344255280648841
1715	2592	344255281361762
1701	2569	344255282194799
1695	2555	344255283009394
1693	2557	344255283818563
1681	2569	344255284622531
1670	2585	344255285379945
1654	2596	344255286224489
1637	2604	344255287084578
1638	2606	344255287896464
1658	2603	344255288736535
1691	2586	344255289511001
1725	2560	344255290327298
1754	2534	344255291163868
1774	2515	344255292133807
1789	2515	344255293152126
1788	2528	344255294006954
1771	2535	344255294780738
1767	2538	344255295594278
1777	2550	344255296407557
1809	2557	344255297243232
1871	2547	344255298154947
1920	2522	344255299018381
1941	2499	344255299822245
1938	2487	344255300636281
1923	2486	344255301455731
1911	2501	344255302301934
1907	2522	344255303144196
1899	2544	344255304001459
1885	2555	344255304810148
1868	2559	344255305413972
1855	2553	344255306136499
1847	2529	344255306987395
1830	2505	344255307792919
1812	2493	344255308635426
1797	2493	344255309439765
1785	2501	344255310247904
1779	2519	344255311086689
1774	2534	344255311918539
1759	2548	344255312721601
1743	2557	344255313413657
1737	2555	344255314239002
1734	2537	344255315075917
1736	2510	344255315882693
1735	2487	344255316628926
1720	2475	344255317438378
1702	2480	344255318427712
1700	2497	344255319249186
1704	2514	344255320138530
1703	2531	344255320985328
1713	2538	344255321807725
1746	2533	344255322617496
1789	2513	344255323443680
1811	2487	344255324245591
1811	2465	344255324879428
1799	2452	344255325677894
1791	2445	344255326508612
1801	2448	344255327313565
1826	2461	344255328211578
1848	2471	344255328972984
1874	2486	344255329782384
1914	2493	344255330594245
1958	2489	344255331417037
2001	2473	344255332250685
2035	2447	344255333102248
2028	2433	344255333976717
2014	2432	344255334791967
2008	2443	344255335401215
2007	2457	344255336243540
2006	2475	344255336927445
2000	2490	344255337736840
1994	2495	344255338568013
1991	2486	344255339382046
1990	2467	344255340219763
1982	2441	344255341086235
1973	2424	344255341901908
1980	2421	344255342713146
2006	2429	344255343579882
2037	2448	344255344394497
2068	2464	344255345213642
2078	2473	344255346077971
2072	2477	344255346887525
2054	2470	344255347699788
2033	2454	344255348561836
2022	2429	344255349375135
2026	2416	344255350212636
2043	2418	344255351066799
2089	2431	344255351875321
2168	2456	344255352682886
2247	2474	344255353412788
2289	2484	344255354137284
2291	2486	344255355022862
2274	2477	344255355853503
2280	2455	344255356666283
2290	2430	344255357481393
2302	2412	344255358261135
2307	2406	344255359104851
2307	2407	344255359912845
2300	2419	344255360736620
2290	2441	344255361414637
2275	2461	344255362245257
2252	2479	344255363090867
2232	2486	344255363921324
2217	2480	344255364729836
2206	2457	344255365558986
2187	2443	344255366369044
2171	2442	344255367203001
2154	2448	344255368102294
2151	2466	344255368882656
2160	2482	344255369693052
2166	2503	344255370520308
2167	2520	344255371324320
2166	2529	344255372156950
2161	2524	344255372888123
2156	2502	344255373716617
2148	2480	344255374529325
2124	2469	344255375348991
2105	2477	344255376187831
2107	2498	344255377030127
2117	2521	344255377856468
2127	2536	344255378694726
2131	2542	344255379505755
2122	2546	344255380335896
2126	2540	344255381132788
2146	2517	344255381944691
2161	2496	344255382744239
2162	2490	344255383571315
2167	2498	344255384390265
2166	2512	344255385248970
2167	2527	344255386092399
2180	2538	344255386905666
2177	2545	344255387711518
2160	2542	344255388542640
2154	2528	344255389352820
2153	2504	344255390207876
2155	2483	344255391044164
2165	2469	344255391631273
2178	2462	344255392464671
2198	2461	344255393381428
2206	2469	344255394228188
2202	2485	344255395110690
2193	2501	344255395763165
2187	2507	344255396569609
2177	2503	344255397401527
2162	2475	344255398423664
2154	2457	344255399263489
2159	2442	344255400142603
2157	2439	344255400981453
2155	2447	344255401796818
2164	2464	344255402622243
2161	2484	344255403448646
2143	2502	344255404387742
2152	2515	344255405252227
2184	2504	344255406097058
2216	2481	344255406906360
2256	2462	344255407710736
2303	2454	344255408515176
2347	2463	344255409329024
2383	2483	344255410184716
2388	2503	344255411022646
2369	2516	344255411833679
2360	2527	344255412662753
2362	2529	344255413493165
2365	2520	344255414308419
2356	2495	344255415148074
2341	2471	344255415985637
2320	2461	344255416641287
2302	2457	344255417423503
2274	2461	344255418433795
2250	2482	344255419260839
2234	2504	344255420091579
2219	2522	344255420724896
2213	2529	344255421521215
2205	2528	344255422345587
2201	2519	344255423183886
2205	2496	344255424032300
2211	2474	344255424830034
2211	2468	344255425587095
2211	2479	344255426396053
2204	2496	344255427024002
2191	2509	344255427827879
2178	2527	344255428661111
2167	2540	344255429471945
2164	2542	344255430283838
2167	2536	344255430963698
2171	2517	344255431734338
2181	2494	344255432540624
2187	2479	344255433271129
2179	2474	344255434133513
2179	2482	344255434943891
2179	2493	344255435750882
2167	2506	344255436553324
2149	2512	344255437366588
2132	2516	344255438393030
2123	2510	344255439255130
2122	2497	344255440094738
2126	2478	344255440904872
2133	2456	344255441644445
2139	2447	344255442456242
2154	2450	344255443392242
2163	2464	344255444244426
2166	2476	344255445086514
2153	2488	344255445767072
2138	2494	344255446592712
2124	2495	344255447399769
2101	2473	344255448418958
2082	2449	344255449262067
2085	2433	344255449897121
2101	2427	344255450701678
2130	2428	344255451505880
2170	2440	344255452313001
2217	2454	344255453154336
2254	2462	344255454030229
2290	2459	344255454835928
2302	2455	344255455640781
2287	2439	344255456390711
2287	2414	344255457237451
2302	2394	344255458155585
2316	2381	344255459065431
2329	2380	344255459875113
2332	2388	344255460668316
2336	2399	344255461417549
2351	2410	344255462257380
2371	2414	344255463271783
2368	2402	344255464118662
2372	2381	344255464760739
2379	2361	344255465572796
2397	2343	344255466400501
2399	2339	344255467236673
2380	2352	344255468153439
2394	2378	344255469008163
2426	2401	344255469793455
2474	2414	344255470614270
2537	2419	344255471420180
2580	2411	344255472254486
2604	2390	344255473103796
2605	2371	344255474040930
2607	2365	344255474830237
2592	2369	344255475639849
2589	2385	344255476445731
2596	2411	344255477036752
2596	2432	344255477848886
2585	2456	344255478699320
2573	2470	344255479508292
2571	2466	344255480314598
2569	2446	344255480949321
2566	2428	344255481712274
2557	2408	344255482521776
2544	2393	344255483274811
2524	2392	344255484121970
2497	2404	344255484956404
2474	2433	344255485781054
2456	2465	344255486593622
2444	2484	344255487402919
2442	2499	344255488451796
2450	2494	344255489273282
2453	2471	344255490114551
2441	2449	344255490940039
2422	2439	344255491527705
2409	2438	344255492339543
2384	2444	344255493173257
2376	2454	344255494082498
2417	2466	344255494881541
2478	2477	344255495707811
2525	2487	344255496517890
2557	2492	344255497326725
2557	2481	344255498444531
2535	2456	344255499275140
2526	2435	344255499898639
2528	2428	344255500706272
2524	2432	344255501414266
2515	2446	344255502392078
2489	2464	344255503396380
2462	2471	344255504026868
2444	2473	344255504838440
2417	2465	344255505643758
2392	2446	344255506453214
2374	2423	344255507265944
2354	2407	344255508189465
2341	2400	344255509053616
2351	2408	344255509874028
2363	2423	344255510677313
2376	2433	344255511485333
2386	2443	344255512296780
2390	2451	344255513056596
2394	2448	344255513886230
2406	2425	344255514533916
2414	2418	344255515363288
2395	2415	344255516307447
2386	2412	344255517141709
2393	2414	344255517914199
2410	2423	344255518660926
2439	2434	344255519471559
2469	2447	344255520295595
2503	2458	344255521133618
2532	2459	344255521944186
2551	2446	344255522746017
2563	2419	344255523570440
2561	2402	344255524349264
2542	2394	344255525132617
2544	2398	344255525950737
2560	2412	344255526761754
2580	2431	344255527457051
2590	2453	344255528436960
2596	2466	344255529272922
2604	2473	344255530125669
2607	2466	344255530929242
2605	2447	344255531734909
2598	2425	344255532561497
2582	2414	344255533247649
2567	2412	344255534086803
2544	2419	344255534879700
2530	2434	344255535695705
2513	2457	344255536502813
2488	2477	344255537328436
2460	2488	344255538232369
2452	2483	344255539098955
2456	2464	344255539912863
2457	2441	344255540727447
2442	2430	344255541526939
2430	2427	344255542333454
2435	2432	344255543171355
2446	2443	344255544026591
2463	2462	344255544856601
2460	2475	344255545636831
2441	2487	344255546452798
2418	2488	344255547272290
2392	2470	344255548337831
2364	2441	344255549058855
2353	2425	344255549889725
2341	2409	344255550697858
2332	2409	344255551474145
2322	2423	344255552047922
2306	2434	344255552854163
2294	2449	344255553650800
2284	2464	344255554468295
2274	2468	344255555277204
2279	2461	344255556113393
2299	2443	344255556874965
2324	2420	344255557693711
2353	2411	344255558501652
2377	2409	344255559301975
2401	2411	344255560108383
2410	2410	344255560890715
2397	2401	344255561675313
2374	2392	344255562383360
2367	2388	344255563314623
2409	2381	344255564142837
2480	2367	344255564916600
2552	2344	344255565697024
2589	2322	344255566473518
2601	2305	344255567291029
2620	2303	344255568198800
2630	2314	344255569082802
2609	2325	344255569893790
2601	2336	344255570699254
2598	2341	344255571504508
2596	2338	344255572394125
2583	2318	344255573271368
2563	2296	344255574131604
2536	2280	344255574905744
2512	2275	344255575712442
2494	2283	344255576515383
2490	2300	344255577324578
2502	2336	344255578353239
2522	2357	344255579034017
2538	2368	344255579841332
2560	2373	344255580653340
2584	2363	344255581460700
2605	2340	344255582274973
2613	2327	344255583119469
2610	2333	344255583944856
2587	2353	344255584758708
2586	2381	344255585545435
2625	2410	344255586374034
2667	2431	344255587210908
2686	2444	344255588125133
2702	2444	344255588948364
2726	2432	344255589540044
2728	2412	344255590351949
2724	2392	344255591205316
2718	2388	344255592005076
2706	2396	344255592808847
2692	2414	344255593632474
2671	2437	344255594440840
2679	2456	344255595280436
2688	2463	344255596184983
2676	2459	344255597021096
2651	2449	344255597792709
2629	2428	344255598646065
2607	2407	344255599456604
2588	2394	344255600275734
2562	2385	344255601139685
2538	2389	344255601946915
2526	2399	344255602761115
2517	2412	344255603576805
2500	2425	344255604278649
2479	2432	344255605121622
2456	2427	344255605951099
2433	2415	344255606761865
2408	2394	344255607570519
2384	2369	344255608290281
2365	2363	344255609135224
2343	2372	344255609950959
2330	2390	344255610776910
2308	2414	344255611582699
2298	2434	344255612385593
2284	2451	344255613360007
2263	2447	344255614202449
2242	2427	344255615006544
2225	2403	344255615829971
2224	2394	344255616540186
2224	2395	344255617350445
2203	2410	344255618244504
2198	2428	344255619102152
2197	2446	344255619955707
2190	2460	344255620774146
2181	2461	344255621582278
2178	2447	344255622387638
2180	2414	344255623420428
2175	2392	344255624265674
2161	2374	344255624912598
2153	2372	344255625718690
2139	2376	344255626534131
2120	2392	344255627121523
2105	2401	344255627945426
2084	2410	344255628792016
2070	2410	344255629605677
2061	2406	344255630429463
2045	2398	344255631164547
2028	2382	344255631970290
2008	2362	344255632797100
1989	2351	344255633413677
1974	2350	344255634256877
1952	2353	344255635148215
1934	2370	344255635962326
1919	2402	344255636725179
1902	2433	344255637406835
1881	2447	344255638429770
1867	2435	344255639271159
1858	2410	344255640067444
1850	2389	344255640876507
1846	2378	344255641540519
1848	2374	344255642362118
1856	2382	344255643199652
1858	2403	344255644052584
1851	2431	344255644877648
1847	2454	344255645685203
1843	2466	344255646491129
1825	2466	344255647288906
1820	2443	344255648344245
1826	2417	344255649179590
1841	2403	344255649916247
1859	2401	344255650717473
1876	2399	344255651517231
1881	2405	344255652318030
1865	2406	344255653160707
1847	2404	344255654014702
1831	2403	344255654817956
1811	2403	344255655624804
1796	2397	344255656409817
1788	2388	344255657264518
1776	2369	344255658173634
1770	2345	344255659033876
1768	2333	344255659824964
1762	2335	344255660608875
1754	2354	344255661413762
1746	2384	344255662268352
1741	2410	344255663105659
1726	2430	344255663933473
1707	2431	344255664518011
1695	2415	344255665333283
1677	2397	344255666170841
1658	2399	344255666972638
1643	2413	344255667783138
1633	2449	344255668624411
1626	2490	344255669451458
1622	2512	344255670285011
1618	2521	344255671125573
1607	2516	344255671951429
1597	2499	344255672775832
1582	2473	344255673420047
1569	2455	344255674253952
1558	2450	344255674915701
1552	2461	344255675722026
1543	2486	344255676545097
1531	2512	344255677352086
1524	2539	344255678259105
1531	2551	344255679047065
1546	2542	344255679851210
1547	2519	344255680658768
1531	2492	344255681412517
1518	2470	344255682250623
1505	2454	344255683089324
1499	2444	344255683933009
1487	2447	344255684763780
1486	2451	344255685567819
1499	2457	344255686394362
1524	2467	344255687228555
1552	2469	344255688134059
1577	2459	344255688961793
1580	2437	344255689775120
1574	2420	344255690589941
1569	2411	344255691415894
1554	2401	344255692252156
1542	2395	344255693100838
1539	2401	344255693926102
1542	2421	344255694721408
1543	2438	344255695529977
1539	2440	344255696352772
1531	2419	344255697277357
1517	2410	344255698191172
1505	2407	344255699068613
1491	2392	344255699876375
1476	2377	344255700688346
1462	2365	344255701495230
1449	2367	344255702388944
1442	2374	344255703308720
1445	2382	344255704197398
1449	2394	344255705036218
1445	2401	344255705852145
1435	2382	344255706700890
1426	2358	344255707513542
1412	2334	344255708558877
1401	2326	344255709351708
1410	2337	344255710131677
1432	2349	344255710922820
1468	2362	344255711748540
1491	2376	344255712425880
1479	2387	344255713397750
1468	2382	344255714226628
1452	2371	344255715101721
1438	2346	344255715916031
1426	2327	344255716547101
1416	2315	344255717356742
1401	2310	344255718263057
1389	2317	344255719117888
1389	2325	344255719928752
1385	2327	344255720673482
1371	2334	344255721497917
1358	2343	344255722310091
1344	2338	344255723150503
1335	2314	344255724035503
1330	2298	344255724842705
1326	2288	344255725433908
1324	2287	344255726062000
1321	2294	344255726876406
1319	2309	344255727684427
1318	2318	344255728528879
1314	2320	344255729339096
1308	2314	344255730178270
1305	2304	344255730973338
1302	2292	344255731794071
1297	2269	344255732602512
1285	2261	344255733419535
1276	2265	344255734353128
1284	2277	344255735193065
1301	2292	344255736042422
1327	2309	344255736851101
1342	2326	344255737441994
1341	2333	344255738474971
1333	2322	344255739295720
1330	2298	344255740262928
1318	2274	344255741161822
1312	2261	344255741983554
1314	2271	344255742795107
1314	2295	344255743644200
1310	2312	344255744458410
1305	2323	344255745300331
1302	2325	344255746134417
1291	2320	344255746943993
1286	2311	344255747753739
1281	2295	344255748584543
1272	2274	344255749383954
1262	2253	344255750216041
1255	2258	344255751072824
1255	2275	344255751897180
1251	2298	344255752707752
1245	2326	344255753412309
1237	2341	344255754048332
1229	2349	344255754854482
1217	2354	344255755680977
1205	2344	344255756488191
1199	2319	344255757303986
1192	2300	344255758181612
1189	2299	344255759043140
1191	2304	344255759848952
1187	2322	344255760672540
1183	2350	344255761425551
1182	2377	344255762267417
1180	2399	344255763104005
1167	2408	344255763936057
1156	2405	344255764746232
1146	2385	344255765577585
1137	2366	344255766392453
1135	2358	344255767229855
1143	2371	344255768132661
1133	2402	344255768927896
1123	2438	344255769737811
1113	2470	344255770564205
1104	2495	344255771373780
1095	2496	344255772204325
1084	2480	344255773036105
1073	2455	344255773872280
1063	2444	344255774677600
1059	2436	344255775503974
1061	2441	344255776316171
1058	2456	344255777162067
1047	2474	344255777987514
1038	2486	344255778819177
1031	2490	344255779626793
1022	2491	344255780457164
1011	2483	344255781179325
1000	2465	344255781984906
994	2443	344255782788791
991	2437	344255783612013
987	2443	344255784424030
989	2454	344255785270203
990	2465	344255785875962
991	2469	344255786686073
991	2482	344255787442498
987	2488	344255788459555
980	2479	344255789359231
969	2457	344255790219819
959	2433	344255791057685
949	2420	344255791861267
944	2418	344255792685922
939	2433	344255793517291
936	2460	344255794326022
929	2493	344255795157845
924	2522	344255795948928
922	2542	344255796769947
917	2547	344255797414723
907	2535	344255798439008
904	2509	344255799244685
904	2494	344255799930413
897	2498	344255800739149
890	2528	344255801549588
882	2583	344255802359530
884	2655	344255803204293
884	2693	344255804060083
886	2703	344255804884171
877	2698	344255805698615
871	2671	344255806510223
863	2647	344255807339185
867	2631	344255808184087
879	2626	344255809027760
886	2634	344255809853976
889	2649	344255810663337
885	2667	344255811478311
879	2679	344255812306104
873	2686	344255813141242
864	2684	344255813976690
857	2667	344255814782310
846	2642	344255815595459
838	2617	344255816404826
833	2603	344255817262023
826	2600	344255818168124
818	2605	344255819023426
812	2612	344255819853060
807	2618	344255820661791
799	2622	344255821421919
792	2617	344255822252072
783	2603	344255823106075
775	2578	344255823944955
769	2552	344255824782194
777	2532	344255825596088
778	2528	344255826409509
772	2534	344255827235864
766	2553	344255828146469
771	2577	344255828979728
777	2591	344255829739778
776	2591	344255830554094
772	2578	344255831185823
769	2557	344255832084392
769	2532	344255832894863
770	2518	344255833721800
774	2525	344255834525239
785	2543	344255835309780
794	2560	344255836150659
802	2576	344255836983414
801	2596	344255837784514
792	2599	344255838618720
784	2588	344255839422626
775	2562	344255840262171
767	2542	344255841106683
759	2530	344255841937838
754	2533	344255842750436
758	2549	344255843578090
764	2571	344255844406051
770	2591	344255845236902
771	2604	344255846073072
765	2604	344255846899317
759	2589	344255847714526
755	2567	344255848551572
749	2542	344255849359883
745	2528	344255850202942
742	2531	344255851040839
746	2550	344255851872346
751	2567	344255852698866
761	2589	344255853413211
775	2604	344255854059285
783	2608	344255854864778
783	2595	344255855671478
777	2570	344255856499698
778	2546	344255857307465
774	2534	344255858194491
775	2535	344255859064755
781	2542	344255859877114
782	2548	344255860685667
778	2551	344255861412699
770	2557	344255862251444
763	2549	344255863252843
769	2532	344255864098613
779	2526	344255864877591
779	2515	344255865691388
773	2489	344255866517286
766	2467	344255867322830
758	2459	344255868230815
750	2477	344255869088994
752	2510	344255869901741
753	2537	344255870699093
747	2552	344255871503846
742	2562	344255872309922
736	2562	344255873156869
726	2540	344255874032279
726	2517	344255874831334
723	2514	344255875639756
717	2525	344255876404562
712	2537	344255877243823
713	2556	344255878151494
719	2573	344255879002225
719	2584	344255879815545
717	2580	344255880624371
711	2562	344255881449914
705	2537	344255882293138
697	2510	344255883134675
691	2494	344255883947358
686	2491	344255884761075
689	2499	344255885571894
697	2514	344255886397243
711	2536	344255887239416
728	2552	344255888144818
733	2555	344255888967235
724	2542	344255889779005
725	2518	344255890589021
732	2493	344255891412678
738	2494	344255892251556
743	2510	344255893088647
760	2536	344255893697791
774	2555	344255894506504
781	2573	344255895318476
775	2579	344255896118521
777	2572	344255896925112
787	2549	344255897734740
810	2536	344255898587441
837	2527	344255899401367
866	2507	344255900239981
889	2491	344255901094798
905	2489	344255901909085
913	2496	344255902710966
914	2510	344255903553834
906	2524	344255904361376
895	2531	344255905192964
886	2527	344255906047604
876	2505	344255906853154
867	2487	344255907659984
861	2481	344255908669762
859	2492	344255909485228
860	2509	344255910314015
863	2530	344255911165391
869	2551	344255911976275
875	2566	344255912758262
875	2571	344255913606507
868	2555	344255914416009
860	2529	344255915260923
858	2512	344255916094078
857	2505	344255916811704
859	2522	344255917622656
872	2554	344255918518904
881	2576	344255919330584
884	2591	344255920170875
887	2597	344255920978738
881	2592	344255921788738
871	2578	344255922603497
863	2554	344255923445612
854	2526	344255924285538
843	2499	344255925153520
844	2489	344255925888028
847	2495	344255926694719
850	2512	344255927503293
842	2535	344255928579863
836	2549	344255929399163
827	2559	344255930238306
828	2554	344255931070156
830	2540	344255931881774
836	2515	344255932694442
848	2492	344255933516295
867	2477	344255934329658
889	2478	344255935169665
915	2495	344255935971782
937	2510	344255936785110
945	2518	344255937594733
935	2520	344255938512384
933	2520	344255939322284
927	2522	344255940163647
918	2506	344255940932459
911	2487	344255941573266
905	2489	344255942381194
900	2507	344255943243067
893	2525	344255944069315
885	2534	344255944878120
880	2534	344255945683733
874	2530	344255946495306
872	2511	344255947319481
872	2482	344255948240354
864	2462	344255949084157
863	2439	344255949811504
863	2421	344255950614238
864	2422	344255951421708
867	2426	344255952255151
874	2434	344255953287745
877	2457	344255954080574
873	2460	344255954891773
883	2451	344255955697546
900	2437	344255956316272
912	2423	344255957159808
914	2400	344255957989448
914	2385	344255958827545
919	2392	344255959636917
921	2405	344255960323682
915	2424	344255961149009
916	2438	344255961911734
930	2440	344255962735424
960	2434	344255963557814
1010	2421	344255964445136
1043	2396	344255965298687
1057	2380	344255966138612
1061	2366	344255966943408
1064	2366	344255967765939
1060	2371	344255968580444
1050	2382	344255969391348
1039	2394	344255970222082
1029	2398	344255971067811
1017	2391	344255971883050
1006	2370	344255972712557
997	2349	344255973542586
985	2334	344255974351378
985	2327	344255975179785
985	2328	344255975986115
986	2336	344255976746499
992	2339	344255977559836
1005	2343	344255978510378
1025	2329	344255979099903
1032	2313	344255979923178
1032	2307	344255980729078
1027	2306	344255981424234
1017	2290	344255982259808
1010	2268	344255983096068
1009	2260	344255983926029
1011	2269	344255984773018
1023	2286	344255985587489
1032	2308	344255986399029
1037	2333	344255987230759
1035	2357	344255988135828
1025	2354	344255988968639
1022	2332	344255989799995
1036	2307	344255990615869
1064	2291	344255991502938
1092	2289	344255992328511
1120	2299	344255993159956
1144	2316	344255993993094
1158	2335	344255994822741
1162	2349	344255995629857
1156	2359	344255996406850
1144	2358	344255997241698
1137	2342	344255998148448
1132	2313	344255998975045
1135	2288	344255999805961
1146	2269	344256000616736
1157	2268	344256001414181
1164	2283	344256002376174
1177	2303	344256003227392
1191	2317	344256004084101
1183	2329	344256004908227
1172	2327	344256005717107
1171	2307	344256006504970
1177	2289	344256007342840
1185	2269	344256008207511
1185	2252	344256009126018
1187	2251	344256009889738
1186	2265	344256010699747
1181	2279	344256011509789
1175	2299	344256012329092
1173	2318	344256013170865
1163	2309	344256014000220
1155	2287	344256014799723
1151	2275	344256015606169
1149	2262	344256016415175
1142	2243	344256017268948
1131	2252	344256018176411
1124	2280	344256019006304
1121	2304	344256019832206
1113	2329	344256020663319
1109	2362	344256021473618
1106	2384	344256022302793
1109	2378	344256023145823
1115	2359	344256023951743
1124	2358	344256024777967
1133	2358	344256025414235
1139	2357	344256026256819
1146	2367	344256026962349
1155	2378	344256027771506
1164	2389	344256028611025
1174	2383	344256029440444
1180	2376	344256030280064
1174	2383	344256031078335
1162	2382	344256031885257
1158	2363	344256032697104
1166	2338	344256033527560
1176	2315	344256034359039
1188	2311	344256035196744
1205	2322	344256036002635
1219	2356	344256036805828
1234	2386	344256037419531
1245	2396	344256038329879
1262	2402	344256039267835
1293	2414	344256040111439
1318	2395	344256040897718
1326	2395	344256041584343
1318	2407	344256042397624
1332	2441	344256043229470
1357	2462	344256044083157
1380	2455	344256044890910
1400	2471	344256045694864
1416	2491	344256046516798
1417	2489	344256047329318
1402	2470	344256048239157
1393	2446	344256049094585
1381	2421	344256049835536
1369	2407	344256050645478
1354	2409	344256051447562
1340	2409	344256052283735
1329	2434	344256053132801
1324	2481	344256053984806
1322	2524	344256054799249
1318	2545	344256055607069
1313	2527	344256056404237
1302	2501	344256057234910
1305	2486	344256058143222
1308	2477	344256058973619
1305	2472	344256059783973
1298	2484	344256060595283
1292	2508	344256061421702
1280	2530	344256062256889
1270	2535	344256063091423
1261	2530	344256063914903
1254	2521	344256064705623
1240	2502	344256065515108
1232	2480	344256066341572
1232	2459	344256067178237
1240	2460	344256067990197
1247	2472	344256068837751
1247	2485	344256069428515
1245	2481	344256070274849
1247	2469	344256071127770
1241	2455	344256071938801
1227	2454	344256072752161
1218	2439	344256073596867
1212	2412	344256074408615
1198	2388	344256075241915
1186	2383	344256076208051
1173	2371	344256076964807
1173	2383	344256077780730
1187	2402	344256078612185
1202	2420	344256079424444
1208	2432	344256080259272
1205	2436	344256081096940
1195	2425	344256081913019
1182	2399	344256082723850
1178	2384	344256083546543
1178	2378	344256084355603
1174	2388	344256085193536
1166	2408	344256086016054
1155	2424	344256086825129
1149	2433	344256087629403
1153	2445	344256088480598
1165	2441	344256089321944
1177	2418	344256090159314
1190	2405	344256090963890
1195	2406	344256091590841
1191	2415	344256092396144
1188	2437	344256093253848
1204	2461	344256094120769
1219	2474	344256094929541
1212	2492	344256095715118
1216	2513	344256096493492
1227	2518	344256097332605
1255	2495	344256098261445
1264	2488	344256099177861
1288	2487	344256099837369
1312	2479	344256100656786
1331	2482	344256101412701
1347	2496	344256102149226
1345	2510	344256102973520
1336	2532	344256103804503
1324	2571	344256104617367
1322	2574	344256105418035
1316	2551	344256106088696
1314	2548	344256106892692
1321	2528	344256107721692
1310	2528	344256108573495
1306	2537	344256109389156
1319	2558	344256110214537
1338	2581	344256111027854
1356	2597	344256111835622
1367	2604	344256112589650
1374	2613	344256113474419
1371	2610	344256114311493
1367	2601	344256115163643
1358	2584	344256115969166
1343	2563	344256116766701
1335	2561	344256117414313
1339	2585	344256118316892
1352	2640	344256119182360
1362	2689	344256119985934
1365	2697	344256120718595
1363	2688	344256121527676
1357	2671	344256122355835
1349	2654	344256123183443
1334	2633	344256124012252
1328	2611	344256124817417
1329	2618	344256125413196
1337	2634	344256126248492
1345	2649	344256126978563
1356	2659	344256127786157
1370	2670	344256128618871
1377	2664	344256129454722
1369	2657	344256130290543
1359	2648	344256131092319
1374	2626	344256131912178
1387	2599	344256132742708
1382	2585	344256133568782
1374	2588	344256134395655
1370	2599	344256135215232
1359	2609	344256136026839
1348	2621	344256136788440
1342	2628	344256137598880
1330	2632	344256138535215
1317	2623	344256139366346
1305	2601	344256140202270
1297	2584	344256140999875
1295	2578	344256141824836
1291	2572	344256142638822
1281	2582	344256143474905
1269	2589	344256144328107
1266	2599	344256145151566
1259	2617	344256145717364
1251	2620	344256146545019
1243	2625	344256147353417
1231	2661	344256148259445
1225	2674	344256149117953
1216	2664	344256149848140
1205	2647	344256150658117
1193	2671	344256151485900
1190	2728	344256152318386
1201	2797	344256153147435
1203	2866	344256153895480
1195	2903	344256154707126
1184	2923	344256155515552
1173	2901	344256156342385
1167	2881	344256157231785
1163	2866	344256158229900
1153	2841	344256159094465
1149	2851	344256159899373
1147	2883	344256160706239
1154	2906	344256161414216
1168	2916	344256162247019
1189	2922	344256163080087
1206	2933	344256163895688
1220	2926	344256164712017
1227	2897	344256165523128
1223	2879	344256166353605
1211	2875	344256167193875
1195	2875	344256167971293
1183	2880	344256168607698
1175	2888	344256169419164
1169	2898	344256170255735
1169	2907	344256171107154
1166	2900	344256171918327
1170	2878	344256172719373
1175	2850	344256173423917
1179	2825	344256174269011
1185	2797	344256175109584
1181	2780	344256175942018
1170	2777	344256176757333
1162	2787	344256177571943
1158	2806	344256178520887
1154	2819	344256179348800
1150	2821	344256180183387
1138	2810	344256181007428
1134	2787	344256181817558
1128	2758	344256182628489
1118	2734	344256183484485
1108	2724	344256184319838
1098	2733	344256185152944
1087	2751	344256185974704
1077	2772	344256186783036
1067	2775	344256187370579
1072	2772	344256188403325
1084	2760	344256189266797
1095	2735	344256190102874
1117	2708	344256190900925
1135	2689	344256191489970
1145	2678	344256192328354
1145	2673	344256193189076
1143	2690	344256194008630
1134	2712	344256194817087
1122	2734	344256195620939
1112	2746	344256196414326
1112	2742	344256197254249
1115	2717	344256198330738
1125	2690	344256199232083
1141	2686	344256199850318
1151	2694	344256200611727
1160	2701	344256201432555
1164	2694	344256202145929
1165	2688	344256202978494
1155	2679	344256203805642
1143	2670	344256204620083
1133	2657	344256205412454
1122	2643	344256206105889
1117	2637	344256206910054
1117	2619	344256207741829
1119	2597	344256208463840
1118	2599	344256209307083
1116	2610	344256210136255
1118	2617	344256210944236
1116	2622	344256211753083
1104	2636	344256212359458
1096	2639	344256213193618
1088	2615	344256214029663
1079	2591	344256214830903
1074	2573	344256215631447
1073	2548	344256216445016
1065	2533	344256217296219
1056	2535	344256218214209
1050	2549	344256219074814
1041	2567	344256219904011
1030	2580	344256220722803
1018	2580	344256221537316
1009	2576	344256222351761
1004	2576	344256223193599
995	2553	344256224022221
985	2532	344256224847765
980	2512	344256225615182
971	2517	344256226428251
965	2544	344256227258196
955	2576	344256228162820
948	2594	344256228982392
943	2595	344256229807784
939	2596	344256230620369
931	2578	344256231428377
920	2559	344256232293979
911	2544	344256233136179
908	2551	344256233973944
906	2550	344256234789683
907	2555	344256235593011
906	2566	344256236400314
903	2577	344256237254262
898	2579	344256238139449
886	2567	344256238972112
880	2541	344256239779673
887	2516	344256240594048
897	2492	344256241404908
899	2471	344256242254122
900	2470	344256243245979
904	2481	344256244229875
906	2490	344256245107434
901	2501	344256245736829
903	2504	344256246549480
904	2500	344256247356172
901	2479	344256248262416
892	2452	344256249107388
890	2427	344256249859379
895	2412	344256250668114
900	2413	344256251492906
914	2428	344256252325731
929	2451	344256253172776
941	2471	344256253993829
945	2482	344256254820426
943	2478	344256255626401
939	2463	344256256352124
933	2441	344256257214624
923	2430	344256258022012
916	2424	344256258860187
906	2433	344256259665611
901	2458	344256260255265
899	2479	344256261090818
898	2505	344256261918013
905	2523	344256262733026
914	2538	344256263559567
915	2536	344256264361962
917	2513	344256265195638
920	2489	344256266003525
920	2475	344256266829732
914	2484	344256267638218
904	2512	344256268535001
892	2537	344256269364019
889	2552	344256270201584
885	2563	344256271004839
883	2580	344256271831329
889	2584	344256272638510
893	2572	344256273421935
899	2552	344256274262156
902	2531	344256275111573
895	2533	344256275919988
885	2541	344256276751721
881	2556	344256277561287
884	2576	344256278537445
883	2591	344256279416985
875	2603	344256280254494
868	2607	344256281096675
860	2598	344256281860342
852	2577	344256282671674
847	2560	344256283499228
849	2569	344256284359978
857	2596	344256285234284
865	2611	344256286052582
865	2619	344256286853708
866	2632	344256287660043
865	2635	344256288493038
857	2621	344256289410125
854	2599	344256290252949
866	2582	344256291087241
884	2560	344256291890374
908	2558	344256292703831
937	2571	344256293534351
964	2592	344256294361769
981	2606	344256295202464
978	2602	344256296014781
972	2588	344256296841750
969	2575	344256297603231
971	2558	344256298544101
972	2535	344256299365869
981	2506	344256300322520
994	2502	344256301172794
1011	2513	344256301987609
1029	2528	344256302807265
1046	2544	344256303636851
1057	2563	344256304443046
1064	2574	344256305286092
1067	2576	344256306111423
1061	2561	344256306932552
1050	2534	344256307740907
1044	2522	344256308603877
1046	2533	344256309413014
1047	2557	344256310238820
1048	2584	344256311045080
1045	2607	344256311822510
1040	2626	344256312602539
1036	2637	344256313500016
1031	2614	344256314359098
1029	2587	344256315247744
1021	2564	344256316090956
1011	2557	344256316894501
1001	2548	344256317707431
991	2562	344256318554801
986	2588	344256319380348
987	2607	344256320214299
983	2613	344256320852463
975	2615	344256321681640
964	2613	344256322492084
953	2611	344256323448238
942	2593	344256324282996
936	2578	344256325125589
938	2581	344256325937807
939	2601	344256326768019
943	2632	344256327574159
946	2665	344256328534940
943	2683	344256329239965
936	2686	344256330035147
929	2663	344256330850556
925	2636	344256331679750
924	2617	344256332495564
926	2604	344256333464765
933	2604	344256334324255
941	2610	344256335164136
950	2620	344256335971151
953	2630	344256336805192
952	2646	344256337615970
954	2671	344256338551113
953	2665	344256339366164
941	2639	344256340205100
938	2627	344256341011475
940	2626	344256341849993
950	2638	344256342662982
962	2654	344256343497688
968	2671	344256344349109
974	2698	344256345179233
971	2710	344256345985498
966	2698	344256346808028
960	2680	344256347615572
950	2667	344256348558276
939	2644	344256349371859
930	2627	344256350209354
921	2632	344256351011999
910	2642	344256351843774
902	2655	344256352652666
891	2659	344256353503573
882	2656	344256354335720
873	2646	344256355174257
864	2635	344256355982040
858	2621	344256356824796
848	2593	344256357636665
838	2569	344256358560598
836	2566	344256359395618
831	2571	344256360235105
828	2589	344256361039306
823	2607	344256361805745
814	2614	344256362611886
815	2606	344256363509661
820	2599	344256364366335
816	2582	344256365209256
815	2555	344256366020557
820	2544	344256366792586
829	2542	344256367601281
824	2561	344256368549774
818	2587	344256369307609
820	2594	344256370149083
823	2605	344256370952560
829	2600	344256371777487
832	2578	344256372588541
841	2547	344256373514382
852	2528	344256374350666
860	2518	344256375194008
862	2516	344256375999526
864	2535	344256376831399
862	2564	344256377594123
857	2593	344256378538631
856	2609	344256379376273
851	2621	344256380214385
842	2615	344256381019655
834	2603	344256381842622
824	2583	344256382650621
817	2560	344256383502096
808	2557	344256384360174
799	2577	344256385212857
790	2612	344256386033906
783	2648	344256386807124
776	2670	344256387400573
770	2676	344256388309073
763	2664	344256389192226
762	2647	344256390002113
767	2621	344256390808191
772	2605	344256391508233
781	2610	344256392342596
793	2623	344256393182290
794	2624	344256394034366
792	2641	344256394844210
792	2673	344256395626097
793	2701	344256396438194
790	2712	344256397276695
787	2691	344256398185901
779	2678	344256399036142
775	2710	344256399845645
779	2719	344256400658036
783	2724	344256401472086
778	2746	344256402428360
776	2746	344256403280487
775	2739	344256403999609
776	2747	344256404810979
784	2755	344256405626184
787	2746	344256406430579
784	2717	344256407267721
780	2698	344256408124233
776	2691	344256408977426
768	2698	344256409789123
760	2717	344256410602297
755	2742	344256411426351
750	2769	344256412371073
747	2787	344256413084582
740	2792	344256413908043
738	2781	344256414723881
735	2755	344256415534995
731	2733	344256416371890
726	2715	344256417204829
723	2726	344256417893156
719	2766	344256418631708
719	2818	344256419440309
714	2842	344256420274969
707	2837	344256421107414
700	2828	344256421918503
697	2814	344256422726631
706	2788	344256423572464
713	2758	344256424375170
720	2734	344256425117036
730	2727	344256425943011
737	2738	344256426749740
740	2750	344256427559014
734	2767	344256428559935
727	2780	344256429385650
722	2785	344256430228102
717	2779	344256431056832
719	2753	344256431868806
722	2725	344256432681325
719	2697	344256433488516
717	2679	344256434331428
725	2692	344256435169014
737	2742	344256435992484
733	2760	344256436855767
730	2752	344256437602590
726	2738	344256438567375
718	2723	344256439377641
710	2705	344256440221263
706	2679	344256440982111
699	2658	344256441795206
694	2639	344256442608270
692	2610	344256443517492
694	2625	344256444356163
697	2670	344256445161879
694	2692	344256445965754
695	2680	344256446776477
704	2653	344256447583442
711	2623	344256448345016
716	2604	344256449188956
722	2582	344256449879728
730	2575	344256450706346
742	2573	344256451519465
745	2575	344256452334331
737	2581	344256453176465
736	2599	344256454009628
741	2611	344256454794552
739	2607	344256455625451
734	2603	344256456369738
737	2592	344256457213487
741	2570	344256458013601
751	2575	344256458852105
768	2585	344256459666489
787	2600	344256460498408
802	2632	344256461332283
809	2663	344256462175943
808	2659	344256462997232
804	2636	344256463825032
802	2609	344256464627761
805	2598	344256465413617
801	2582	344256466254408
797	2561	344256467058220
802	2557	344256467860192
815	2563	344256468633912
828	2567	344256469448795
855	2578	344256470319894
878	2590	344256471160157
886	2593	344256471963847
888	2614	344256472752662
892	2641	344256473413284
892	2623	344256474257219
888	2619	344256475162429
884	2612	344256475977298
898	2616	344256476797821
913	2630	344256477625641
917	2655	344256478514668
923	2679	344256479351370
931	2699	344256480208103
936	2694	344256481019119
930	2668	344256481832936
921	2642	344256482640331
921	2647	344256483525872
936	2656	344256484457702
940	2648	344256485257407
939	2645	344256486067529
947	2659	344256486877561
960	2701	344256487679485
962	2728	344256488512933
965	2714	344256489348988
978	2684	344256490199319
995	2663	344256491007059
1006	2660	344256491814574
1004	2662	344256492641903
1010	2678	344256493413752
1017	2706	344256494256349
1012	2744	344256495056148
1005	2775	344256495635136
1007	2782	344256496431651
1014	2758	344256497288889
1026	2743	344256498200432
1028	2734	344256499040413
1028	2706	344256499847889
1035	2715	344256500657009
1054	2738	344256501413304
1063	2755	344256502230176
1058	2775	344256503040782
1047	2796	344256503870900
1040	2784	344256504635181
1037	2761	344256505448588
1048	2735	344256506131835
1059	2715	344256506961047
1067	2688	344256507774503
1072	2669	344256508627880
1073	2668	344256509414076
1064	2667	344256510259113
1059	2674	344256511074893
1056	2686	344256511905759
1051	2686	344256512629543
1042	2685	344256513526236
1039	2687	344256514356140
1035	2686	344256515192887
1031	2665	344256516006548
1030	2669	344256516832155
1025	2663	344256517426011
1026	2673	344256518343445
1031	2691	344256519200128
1038	2691	344256520011427
1032	2694	344256520635008
1024	2695	344256521455508
1018	2669	344256522287781
1009	2657	344256523119980
997	2667	344256523965979
1001	2648	344256524800021
1025	2637	344256525615869
1053	2649	344256526420493
1069	2675	344256527258476
1080	2705	344256528065748
1082	2725	344256528918632
1070	2738	344256529744890
1059	2723	344256530557203
1051	2698	344256531389107
1050	2683	344256532227139
1066	2666	344256533038043
1083	2650	344256533864790
1098	2658	344256534676176
1110	2687	344256535265346
1112	2707	344256536118680
1104	2719	344256536903208
1096	2721	344256537700968
1089	2726	344256538556192
1086	2720	344256539389361
1086	2704	344256540193054
1081	2682	344256541027701
1072	2687	344256541811435
1060	2723	344256542621409
1048	2763	344256543493431
1041	2779	344256544333135
1039	2787	344256545162846
1043	2786	344256545989181
1040	2798	344256546798548
1037	2818	344256547603295
1034	2814	344256548564823
1028	2791	344256549393500
1028	2770	344256550221805
1052	2757	344256551048267
1074	2744	344256551863008
1083	2743	344256552683493
1092	2781	344256553536314
1096	2837	344256554349240
1092	2843	344256555191353
1081	2829	344256556020954
1071	2810	344256556834359
1067	2788	344256557424562
1063	2776	344256558140571
1063	2771	344256558972084
1064	2774	344256559785014
1068	2788	344256560533602
1064	2805	344256561434722
1062	2823	344256562278331
1058	2833	344256563131116
1069	2827	344256564008120
1083	2803	344256564812772
1093	2774	344256565421148
1102	2755	344256566265652
1104	2742	344256567039578
1098	2741	344256567818776
1086	2747	344256568504984
1080	2746	344256569317970
1072	2750	344256570146860
1060	2760	344256570923389
1052	2756	344256571704452
1041	2735	344256572479350
1034	2709	344256573289298
1024	2679	344256574116336
1018	2657	344256574750240
1021	2653	344256575528524
1027	2663	344256576339400
1032	2677	344256577190758
1040	2690	344256577971085
1042	2707	344256578776526
1035	2692	344256579604589
1041	2659	344256580515732
1057	2649	344256581360303
1054	2632	344256582220350
1048	2608	344256583032690
1051	2582	344256583861836
1047	2575	344256584626042
1036	2589	344256585268990
1029	2605	344256586077783
1027	2626	344256586907429
1023	2640	344256587712946
1012	2642	344256588601093
1004	2638	344256589408301
994	2623	344256590249744
985	2603	344256591058008
975	2594	344256591887989
965	2587	344256592698755
955	2600	344256593416313
945	2625	344256594278493
939	2653	344256595078030
937	2673	344256595914146
929	2681	344256596689153
927	2665	344256597486223
930	2641	344256598389859
942	2629	344256599248807
957	2608	344256600054828
968	2622	344256600866121
976	2641	344256601686024
993	2646	344256602496635
1007	2651	344256603337956
1003	2658	344256604043770
1000	2663	344256604853285
1008	2662	344256605666788
1015	2647	344256606464079
1020	2623	344256607305509
1026	2596	344256608147852
1029	2581	344256608981364
1029	2591	344256609795989
1029	2615	344256610606312
1030	2641	344256611435726
1033	2662	344256612270878
1034	2678	344256613087681
1034	2676	344256613912014
1027	2660	344256614716010
1018	2634	344256615536204
1016	2607	344256616392296
1023	2599	344256617222157
1022	2615	344256618036693
1015	2648	344256618863104
1012	2671	344256619679607
1024	2687	344256620493170
1030	2687	344256621351306
1026	2676	344256622187655
1020	2654	344256622785872
1018	2631	344256623629042
1018	2607	344256624442036
1023	2599	344256625253950
1021	2607	344256626052595
1016	2618	344256626860006
1026	2627	344256627668546
1041	2634	344256628587526
1055	2630	344256629408496
1068	2622	344256630250099
1073	2611	344256631042573
1074	2596	344256631848315
1077	2567	344256632659865
1090	2551	344256633536298
1129	2545	344256634378347
1151	2555	344256635225585
1144	2573	344256636054528
1142	2594	344256636892461
1160	2607	344256637703253
1182	2610	344256638604769
1213	2601	344256639398624
1246	2575	344256640289434
1262	2553	344256641053251
1266	2544	344256641871744
1262	2544	344256642677397
1258	2558	344256643529245
1246	2575	344256644369137
1243	2595	344256645177472
1230	2609	344256645994575
1227	2601	344256646809196
1236	2582	344256647622631
1248	2557	344256648383719
1249	2535	344256649235277
1254	2518	344256650048114
1261	2508	344256650883519
1268	2507	344256651695049
1270	2514	344256652511809
1265	2528	344256653472010
1256	2537	344256654293979
1257	2536	344256655134142
1254	2531	344256655964353
1246	2519	344256656777975
1233	2502	344256657414920
1222	2479	344256658156862
1214	2469	344256658985689
1207	2470	344256659797841
1203	2492	344256660627155
1198	2522	344256661444804
1187	2546	344256662273775
1183	2568	344256663128959
1183	2572	344256663959491
1183	2558	344256664766929
1184	2533	344256665414001
1183	2524	344256666254517
1175	2522	344256667059770
1164	2528	344256667860080
1161	2544	344256668528329
1174	2555	344256669368640
1194	2569	344256670233296
1201	2579	344256671040476
1200	2594	344256671850545
1193	2594	344256672579738
1194	2577	344256673529825
1195	2552	344256674367543
1208	2535	344256675221756
1219	2538	344256676030838
1235	2553	344256676844377
1250	2572	344256677674769
1260	2594	344256678599493
1259	2611	344256679414159
1249	2622	344256680270438
1240	2617	344256681030438
1227	2598	344256681855308
1217	2572	344256682665572
1222	2552	344256683542573
1242	2547	344256684387656
1260	2563	344256685246672
1273	2582	344256686061600
1284	2603	344256686867622
1286	2623	344256687671008
1290	2638	344256688504836
1286	2637	344256689351636
1276	2622	344256690205180
1272	2594	344256691017431
1271	2579	344256691825371
1265	2576	344256692671764
1252	2590	344256693413520
1248	2607	344256694257516
1247	2633	344256695061525
1246	2648	344256695687846
1239	2659	344256696497884
1228	2656	344256697356848
1232	2636	344256698426920
1230	2607	344256699284540
1220	2595	344256700083351
1221	2588	344256700896441
1228	2591	344256701711410
1248	2597	344256702540394
1279	2610	344256703508548
1303	2617	344256704350754
1319	2622	344256705202385
1331	2619	344256706014344
1327	2606	344256706800802
1323	2583	344256707602708
1325	2560	344256708637482
1328	2558	344256709453995
1326	2566	344256710314048
1326	2589	344256711147040
1317	2614	344256711865533
1310	2631	344256712762893
1306	2638	344256713412343
1299	2633	344256714229956
1288	2618	344256714901307
1278	2596	344256715667394
1263	2582	344256716484584
1262	2575	344256717328205
1257	2582	344256718235838
1244	2598	344256719032225
1236	2607	344256719822294
1236	2617	344256720638267
1234	2625	344256721401681
1231	2633	344256722264426
1234	2638	344256723071419
1236	2626	344256723907839
1238	2601	344256724714235
1242	2596	344256725524216
1243	2607	344256726358383
1235	2633	344256727213181
1223	2661	344256728019847
1215	2685	344256728844277
1205	2698	344256729670947
1192	2696	344256730480809
1186	2679	344256731318356
1178	2653	344256732171321
1168	2634	344256732983971
1162	2623	344256733803105
1151	2622	344256734616958
1141	2635	344256735318399
1141	2650	344256736137357
1156	2665	344256736957706
1182	2675	344256737751597
1202	2679	344256738603884
1204	2674	344256739413501
1198	2651	344256740304202
1187	2625	344256741147949
1174	2612	344256741975222
1169	2611	344256742782573
1171	2623	344256743572682
1170	2640	344256744336308
1171	2654	344256745225889
1177	2664	344256746007448
1177	2671	344256746804416
1175	2664	344256747580670
1160	2639	344256748674683
1158	2613	344256749452653
1156	2594	344256750253203
1153	2591	344256751027300
1143	2604	344256751842554
1133	2625	344256752621631
1125	2649	344256753363322
1118	2666	344256754175437
1111	2677	344256754951969
1112	2676	344256755730288
1119	2662	344256756498512
1127	2635	344256757306693
1131	2616	344256758146631
1131	2611	344256758964261
1121	2619	344256759744247
1111	2637	344256760437584
1104	2655	344256761300767
1098	2669	344256762138179
1102	2676	344256762951003
1106	2671	344256763777253
1110	2650	344256764451432
1115	2626	344256765292510
1124	2603	344256766154871
1134	2590	344256766931180
1137	2589	344256767745226
1127	2603	344256768517342
1119	2623	344256769363460
1115	2642	344256770202093
1118	2654	344256771030106
1123	2658	344256771838705
1125	2649	344256772651053
1125	2623	344256773556997
1124	2598	344256774399955
1122	2584	344256775238872
1116	2589	344256776061958
1110	2605	344256776874935
1096	2627	344256777684700
1083	2654	344256778607318
1072	2671	344256779417858
1068	2681	344256780256800
1059	2676	344256781078279
1050	2658	344256781886191
1039	2632	344256782693414
1028	2620	344256783557351
1024	2618	344256784388013
1028	2632	344256785181588
1032	2649	344256786004324
1040	2673	344256786812976
1049	2692	344256787597786
1046	2702	344256788566123
1040	2690	344256789405246
1053	2665	344256790212711
1073	2640	344256790983522
1087	2626	344256791759379
1100	2625	344256792542371
1111	2638	344256793494031
1118	2653	344256794309833
1113	2666	344256795113150
1102	2672	344256795667647
1094	2674	344256796448005
1090	2664	344256797309542
1091	2646	344256798195839
1097	2614	344256799007347
1106	2596	344256799799429
1114	2587	344256800565993
1127	2593	344256801431012
1144	2608	344256802224085
1158	2621	344256803051367
1170	2636	344256803886030
1166	2643	344256804724918
1156	2641	344256805534116
1149	2623	344256806407954
1145	2593	344256807303966
1145	2574	344256808201602
1153	2569	344256809041516
1166	2577	344256809860685
1175	2595	344256810684279
1181	2615	344256811498702
1183	2631	344256812310467
1183	2641	344256813329831
1173	2634	344256814182486
1166	2613	344256814988253
1161	2586	344256815817351
1159	2571	344256816455763
1158	2567	344256817296525
1156	2576	344256818101244
1151	2596	344256818932574
1145	2614	344256819744963
1153	2633	344256820573694
1164	2643	344256821415744
1164	2642	344256822257904
1152	2627	344256823030457
1143	2599	344256823857508
1131	2577	344256824671519
1120	2571	344256825497597
1110	2582	344256826336226
1099	2601	344256826954979
1092	2617	344256827781865
1082	2633	344256828613711
1071	2643	344256829421028
1062	2644	344256830258422
1063	2631	344256831065705
1066	2607	344256831871551
1074	2582	344256832703199
1083	2564	344256833563222
1088	2561	344256834403062
1094	2571	344256835204972
1095	2589	344256836010747
1095	2607	344256836817102
1088	2623	344256837425389
1080	2630	344256838337650
1067	2623	344256839196458
1066	2598	344256839996513
1073	2577	344256840804185
1079	2562	344256841444167
1084	2559	344256842295816
1092	2564	344256843108229
1103	2580	344256843936405
1117	2596	344256844756725
1134	2603	344256845415645
1146	2608	344256846257756
1149	2599	344256847059803
1144	2581	344256847681289
1136	2563	344256848515348
1126	2538	344256849380616
1120	2521	344256850216846
1124	2519	344256851021232
1133	2534	344256851827379
1141	2559	344256852638762
1147	2588	344256853422511
1151	2607	344256854287506
1153	2611	344256855093330
1143	2603	344256855901141
1129	2579	344256856662684
1122	2556	344256857475774
1114	2541	344256858179439
1105	2540	344256859030987
1094	2548	344256859842536
1085	2572	344256860645929
1085	2597	344256861453255
1076	2615	344256862289622
1064	2624	344256863103745
1056	2617	344256863950974
1047	2594	344256864761383
1044	2576	344256865422070
1047	2568	344256866260770
1053	2562	344256867067192
1060	2560	344256867879175
1068	2568	344256868554144
1075	2579	344256869398623
1087	2585	344256870242165
1087	2588	344256871045525
1077	2583	344256871852598
1067	2569	344256872662083
1053	2544	344256873414823
1048	2519	344256874311356
1042	2499	344256875144669
1032	2492	344256875983380
1023	2497	344256876794967
1012	2515	344256877608215
999	2537	344256878562491
990	2549	344256879390229
987	2560	344256880250524
991	2553	344256881049014
999	2534	344256881867175
998	2512	344256882570033
987	2501	344256883527256
982	2499	344256884373873
976	2515	344256885178951
970	2537	344256886002971
961	2558	344256886809969
954	2569	344256887407597
951	2572	344256888339891
948	2565	344256889184304
951	2545	344256889988564
954	2517	344256890655043
955	2500	344256891426069
959	2489	344256892262475
966	2496	344256893041635
969	2510	344256893846819
968	2530	344256894661362
961	2542	344256895465580
958	2545	344256896272012
968	2537	344256897090373
989	2514	344256897702774
1017	2491	344256898628565
1049	2467	344256899440177
1075	2453	344256900271493
1086	2449	344256901071541
1095	2454	344256901889292
1091	2465	344256902694724
1080	2474	344256903579104
1067	2481	344256904387229
1057	2478	344256905238019
1053	2465	344256906046868
1055	2441	344256906853390
1049	2420	344256907659757
1051	2408	344256908654791
1062	2408	344256909471463
1071	2418	344256910202582
1078	2429	344256911007216
1071	2439	344256911821609
1061	2440	344256912575788
1052	2431	344256913543131
1046	2414	344256914389426
1040	2393	344256915241799
1038	2369	344256916053983
1037	2353	344256916881827
1034	2354	344256917715268
1026	2366	344256918565244
1016	2383	344256919405969
1008	2401	344256920273922
1007	2411	344256920954011
1008	2416	344256921764245
1004	2407	344256922591118
995	2381	344256923550439
989	2359	344256924387136
984	2351	344256925202108
986	2354	344256926017483
994	2365	344256926820415
1004	2386	344256927651321
1017	2403	344256928485290
1028	2414	344256929327170
1036	2423	344256930181660
1034	2420	344256930990614
1024	2405	344256931802665
1016	2380	344256932605817
1019	2374	344256933560082
1031	2384	344256934370171
1046	2407	344256935208358
1062	2434	344256936018045
1083	2457	344256936830727
1103	2473	344256937413201
1117	2476	344256938326404
1127	2468	344256939186372
1128	2447	344256940015994
1123	2423	344256940828945
1117	2413	344256941472518
1109	2411	344256942323342
1114	2424	344256943129562
1130	2443	344256943956434
1146	2463	344256944782704
1169	2479	344256945413540
1187	2488	344256946256397
1205	2490	344256947058318
1216	2480	344256947680063
1214	2460	344256948621508
1204	2436	344256949453820
1196	2426	344256950259284
1198	2437	344256951076808
1210	2456	344256951881883
1226	2478	344256952659788
1241	2494	344256953577427
1255	2502	344256954413130
1262	2501	344256955252281
1264	2489	344256956055380
1260	2466	344256956876445
1248	2443	344256957649096
1243	2429	344256958620500
1251	2435	344256959450948
1281	2449	344256960179137
1302	2464	344256960992971
1324	2475	344256961790824
1330	2484	344256962599720
1322	2487	344256963560469
1317	2475	344256964309870
1324	2454	344256965125143
1339	2434	344256965937880
1361	2420	344256966747306
1385	2417	344256967561601
1420	2434	344256968559218
1439	2455	344256969320163
1454	2472	344256970127046
1464	2486	344256970909678
1463	2488	344256971735107
1448	2477	344256972567199
1446	2449	344256973531797
1452	2426	344256974366681
1460	2417	344256975201614
1473	2417	344256976009873
1485	2429	344256976810614
1493	2446	344256977611132
1484	2469	344256978619005
1474	2481	344256979456088
1468	2479	344256980327489
1463	2465	344256981060994
1460	2445	344256981862409
1447	2426	344256982672725
1438	2413	344256983585991
1438	2413	344256984532854
1445	2426	344256985190065
1450	2439	344256986000034
1452	2450	344256986712988
1447	2459	344256987308451
1436	2463	344256988115495
1426	2456	344256988955209
1410	2438	344256989745345
1400	2419	344256990555191
1393	2392	344256991387322
1380	2376	344256992214184
1375	2382	344256993019130
1380	2404	344256993803827
1383	2423	344256994617016
1385	2437	344256995446572
1387	2448	344256996301941
1382	2444	344256997065946
1371	2429	344256997689460
1359	2406	344256998638693
1346	2385	344256999451076
1340	2371	344257000277209
1339	2371	344257001090083
1336	2389	344257001814322
1335	2404	344257002628285
1324	2419	344257003577361
1319	2430	344257004406100
1309	2430	344257005250021
1300	2420	344257006056449
1286	2397	344257006865011
1271	2372	344257007678011
1263	2356	344257008679529
1256	2362	344257009500496
1246	2376	344257010188073
1234	2391	344257011006377
1228	2409	344257011813853
1227	2421	344257012618359
1240	2429	344257013414052
1257	2424	344257014258096
1276	2409	344257015069911
1297	2385	344257015871701
1322	2371	344257016685133
1344	2374	344257017493623
1368	2398	344257018416398
1375	2426	344257019279413
1375	2450	344257020087495
1376	2466	344257020891482
1376	2470	344257021696830
1392	2459	344257022508366
1417	2435	344257023365962
1440	2411	344257024227729
1459	2396	344257025036134
1479	2395	344257025875841
1494	2405	344257026688060
1500	2421	344257027496203
1499	2442	344257028507863
1497	2457	344257029372077
1487	2459	344257030267690
1473	2449	344257031070533
1478	2429	344257031883107
1489	2403	344257032693388
1507	2384	344257033585089
1521	2381	344257034423837
1538	2394	344257035192352
1550	2415	344257036014394
1555	2434	344257036822855
1554	2457	344257037421250
1554	2468	344257038358946
1553	2466	344257039224336
1541	2444	344257040043697
1536	2420	344257040805118
1555	2406	344257041448438
1575	2406	344257042287053
1598	2422	344257043116715
1624	2445	344257043943132
1641	2464	344257044758506
1653	2477	344257045563030
1670	2483	344257046400783
1672	2475	344257047238372
1658	2455	344257048062969
1656	2433	344257048894990
1672	2419	344257049709092
1697	2417	344257050536184
1727	2426	344257051384149
1758	2445	344257052220088
1783	2465	344257053046530
1810	2477	344257053885709
1828	2481	344257054696592
1842	2473	344257055496568
1849	2450	344257056337428
1842	2428	344257057152999
1825	2414	344257057890682
1824	2410	344257058721871
1840	2412	344257059533237
1854	2429	344257060196173
1865	2441	344257061006212
1868	2455	344257061806520
1868	2466	344257062632066
1857	2466	344257063580881
1841	2449	344257064318994
1824	2427	344257065156563
1805	2408	344257065897114
1791	2399	344257066710775
1777	2399	344257067541624
1773	2420	344257068448860
1760	2443	344257069319652
1741	2459	344257070127256
1732	2472	344257070939848
1731	2471	344257071750490
1735	2458	344257072580983
1737	2431	344257073413926
1736	2413	344257074262171
1728	2401	344257075084997
1721	2399	344257075897512
1718	2406	344257076711091
1711	2422	344257077537781
1693	2441	344257078438483
1674	2450	344257079293396
1664	2453	344257080094451
1658	2448	344257080901539
1653	2430	344257081709302
1656	2408	344257082510617
1663	2394	344257083346646
1674	2392	344257084318501
1689	2406	344257085154508
1705	2426	344257085938561
1717	2443	344257086745289
1723	2451	344257087567716
1719	2447	344257088397990
1715	2438	344257089210373
1712	2414	344257090030864
1708	2396	344257090829474
1695	2389	344257091445011
1695	2387	344257092299544
1705	2396	344257093117731
1720	2409	344257093946798
1736	2425	344257094752833
1751	2436	344257095561813
1763	2441	344257096403396
1763	2438	344257097244407
1754	2422	344257098053061
1742	2399	344257098884607
1729	2381	344257099691516
1734	2378	344257100502772
1736	2395	344257101348388
1735	2420	344257102273551
1719	2451	344257103085111
1705	2471	344257103919290
1702	2480	344257104743008
1703	2469	344257105413763
1703	2449	344257106325132
1699	2425	344257107189372
1691	2414	344257107999336
1681	2410	344257108843537
1668	2412	344257109653668
1652	2425	344257110463126
1639	2440	344257111300786
1633	2455	344257112126451
1621	2471	344257112940855
1605	2477	344257113771754
1597	2471	344257114594827
1588	2448	344257115433103
1580	2437	344257116269633
1568	2448	344257117095518
1557	2470	344257117908137
1558	2497	344257118582812
1569	2513	344257119491677
1594	2528	344257120316013
1620	2537	344257121128687
1630	2533	344257121931335
1623	2519	344257122698616
1610	2492	344257123599868
1596	2471	344257124459286
1583	2465	344257125294008
1571	2476	344257126100784
1561	2497	344257126822618
1544	2520	344257127681544
1533	2543	344257128638975
1531	2551	344257129413102
1523	2549	344257130253130
1515	2536	344257131063030
1512	2511	344257131885082
1516	2486	344257132697056
1520	2475	344257133587623
1515	2480	344257134445883
1500	2507	344257135201589
1489	2534	344257136009257
1480	2559	344257136810119
1475	2574	344257137412200
1468	2576	344257138480852
1453	2555	344257139327761
1445	2529	344257140135682
1446	2508	344257140953812
1442	2499	344257141756119
1432	2503	344257142562191
1438	2521	344257143401179
1455	2543	344257144276305
1471	2561	344257145089068
1476	2572	344257145823685
1467	2576	344257146652182
1456	2568	344257147459299
1446	2542	344257148365682
1432	2519	344257149217628
1420	2510	344257149830197
1410	2514	344257150639351
1395	2530	344257151479790
1380	2551	344257152289864
1366	2568	344257153218999
1352	2578	344257153910659
1341	2580	344257154720540
1327	2574	344257155532028
1313	2555	344257156384829
1301	2529	344257157220477
1287	2508	344257158028836
1277	2499	344257158875416
1274	2505	344257159693677
1279	2524	344257160447205
1287	2546	344257161281051
1294	2566	344257162189584
1291	2576	344257163001083
1282	2568	344257163823515
1270	2544	344257164624975
1261	2518	344257165422989
1252	2500	344257166271992
1242	2492	344257167060517
1234	2493	344257167870036
1222	2505	344257168701568
1210	2516	344257169506100
1201	2528	344257170342805
1189	2536	344257171237761
1178	2535	344257172037011
1173	2525	344257172703533
1167	2511	344257173423819
1157	2492	344257174263945
1147	2470	344257175073326
1140	2466	344257175902138
1130	2482	344257176715839
1122	2504	344257177526480
1110	2532	344257178429638
1100	2547	344257179293022
1091	2552	344257180096617
1085	2538	344257180928370
1075	2513	344257181736386
1067	2497	344257182545420
1072	2489	344257183374185
1078	2487	344257184231463
1074	2493	344257185041875
1064	2504	344257185872492
1058	2520	344257186658419
1058	2536	344257187479046
1060	2546	344257188674108
1061	2528	344257189764603
1053	2500	344257190583511
1040	2489	344257191425976
1029	2493	344257192320428
1017	2511	344257193135192
1006	2533	344257193984943
996	2552	344257194794119
995	2566	344257195601675
998	2566	344257196548107
994	2546	344257197390566
987	2519	344257198303992
1001	2494	344257199157450
1017	2480	344257199969429
1030	2480	344257200782693
1040	2492	344257201589599
1042	2510	344257202280332
1039	2520	344257203086410
1026	2529	344257204020860
1020	2532	344257204839739
1024	2527	344257205623114
1029	2510	344257206467840
1039	2484	344257207308225
1041	2467	344257208093488
1049	2463	344257208854238
1070	2470	344257209668919
1097	2488	344257210483265
1122	2510	344257211342778
1133	2524	344257212153286
1143	2532	344257212968916
1155	2522	344257213796488
1156	2503	344257214609453
1151	2475	344257215446836
1160	2456	344257216311115
1175	2450	344257217135106
1194	2456	344257217950130
1220	2473	344257218782223
1249	2486	344257219588777
1276	2504	344257220473407
1291	2511	344257221329916
1302	2510	344257222138794
1306	2490	344257222727294
1307	2471	344257223617325
1297	2451	344257224455703
1296	2443	344257225296690
1315	2447	344257226102120
1337	2462	344257226836404
1354	2475	344257227644235
1365	2488	344257228652572
1366	2494	344257229474088
1371	2495	344257230311817
1370	2481	344257230961560
1371	2463	344257231773498
1365	2438	344257232586983
1352	2417	344257233568410
1352	2418	344257234416867
1362	2427	344257235211610
1380	2441	344257236039365
1393	2452	344257236848548
1405	2462	344257237437967
1406	2466	344257238374152
1395	2465	344257239237541
1384	2450	344257240045429
1378	2427	344257240805434
1367	2416	344257241464022
1357	2417	344257242297612
1358	2429	344257243124151
1363	2448	344257243921623
1353	2468	344257244733448
1354	2485	344257245539375
1364	2493	344257246376916
1377	2487	344257247275007
1391	2464	344257248101496
1404	2440	344257248939918
1408	2431	344257249717450
1402	2435	344257250540282
1389	2448	344257251383577
1373	2461	344257252351646
1354	2476	344257253187868
1342	2490	344257253970645
1334	2493	344257254781556
1330	2485	344257255585705
1333	2466	344257256210197
1334	2446	344257257018462
1341	2428	344257257852544
1336	2423	344257258684990
1327	2432	344257259494637
1325	2448	344257260217374
1325	2461	344257261027104
1312	2474	344257261843792
1313	2484	344257262660085
1325	2488	344257263605911
1331	2477	344257264343439
1337	2457	344257265168165
1340	2431	344257265979106
1336	2419	344257266785974
1328	2423	344257267615710
1314	2448	344257268468931
1307	2469	344257269317166
1294	2492	344257270120103
1290	2509	344257270927213
1292	2512	344257271739558
1290	2501	344257272575407
1277	2472	344257273539029
1266	2450	344257274383547
1257	2440	344257275291364
1259	2442	344257276094851
1276	2458	344257276841200
1284	2478	344257277668056
1281	2498	344257278659707
1271	2508	344257279533230
1262	2510	344257280390367
1259	2496	344257281216573
1256	2470	344257282025283
1260	2452	344257282831666
1253	2444	344257283664449
1239	2452	344257284482191
1227	2467	344257285222137
1215	2484	344257286033575
1205	2498	344257286843613
1198	2502	344257287649024
1189	2496	344257288661327
1179	2477	344257289350636
1171	2457	344257290199263
1167	2434	344257291007391
1162	2417	344257291812299
1154	2412	344257292639740
1175	2422	344257293471845
1186	2438	344257294315575
1179	2457	344257295115257
1172	2468	344257295921270
1179	2467	344257296728288
1192	2456	344257297558837
1191	2431	344257298458679
1183	2405	344257299316197
1175	2396	344257300117738
1181	2396	344257300924077
1193	2408	344257301742238
1205	2425	344257302576637
1211	2445	344257303416831
1218	2457	344257304275242
1229	2457	344257305110631
1237	2442	344257305920722
1233	2417	344257306733289
1222	2396	344257307537138
1217	2382	344257308559341
1225	2387	344257309433684
1233	2400	344257310218370
1237	2415	344257311027633
1240	2427	344257311843911
1245	2434	344257312646650
1258	2430	344257313414859
1270	2416	344257314260317
1288	2388	344257315079493
1302	2370	344257315902428
1312	2358	344257316720204
1316	2354	344257317548578
1303	2365	344257318451876
1301	2379	344257319315491
1304	2395	344257320123820
1320	2403	344257320930080
1348	2405	344257321738440
1395	2393	344257322567653
1452	2369	344257323404919
1484	2348	344257324253975
1501	2328	344257325057996
1496	2322	344257325877234
1491	2331	344257326683181
1497	2350	344257327505169
1514	2373	344257328406276
1535	2385	344257329148916
1560	2389	344257329893530
1580	2382	344257330693913
1595	2364	344257331505397
1593	2339	344257332371223
1577	2325	344257333370392
1565	2324	344257334225598
1564	2337	344257335056965
1569	2352	344257335868646
1563	2368	344257336682186
1563	2379	344257337489898
1572	2381	344257338405380
1586	2371	344257339271199
1588	2345	344257340094585
1574	2327	344257340898480
1572	2318	344257341718611
1570	2324	344257342558197
1574	2341	344257343397426
1578	2362	344257344223170
1570	2376	344257344983492
1557	2383	344257345606581
1547	2379	344257346436050
1531	2366	344257347290276
1521	2344	344257348100730
1515	2320	344257348934920
1508	2308	344257349722810
1498	2307	344257350535817
1489	2316	344257351374683
1481	2333	344257352229440
1471	2355	344257353037262
1455	2374	344257353874643
1440	2377	344257354699225
1427	2371	344257355508709
1418	2354	344257356342987
1407	2327	344257357148244
1399	2306	344257357936314
1386	2297	344257358775451
1377	2302	344257359582006
1366	2317	344257360236099
1355	2330	344257361048241
1341	2346	344257361880081
1330	2356	344257362669025
1313	2358	344257363609879
1309	2346	344257364356453
1313	2330	344257365150240
1322	2306	344257365867351
1341	2296	344257366479443
1356	2294	344257367318327
1360	2302	344257368127399
1350	2310	344257368961076
1338	2322	344257369772752
1333	2334	344257370579505
1336	2341	344257371430065
1354	2337	344257372269807
1371	2324	344257372963240
1388	2303	344257373812973
1411	2283	344257374620745
1431	2274	344257375451010
1428	2280	344257376282083
1433	2294	344257377098380
1453	2317	344257377910350
1475	2337	344257378761555
1483	2345	344257379574580
1481	2346	344257380411689
1468	2334	344257381245042
1463	2307	344257382056900
1476	2294	344257382867427
1503	2286	344257383710391
1517	2288	344257384525291
1520	2300	344257385368086
1510	2314	344257386232287
1514	2333	344257387044014
1521	2347	344257387855579
1519	2356	344257388681600
1514	2344	344257389362796
1507	2324	344257390173626
1495	2298	344257391004973
1482	2284	344257391786362
1473	2284	344257392594588
1462	2300	344257393429983
1449	2319	344257394292205
1436	2335	344257395102876
1436	2344	344257395928505
1447	2347	344257396738597
1447	2338	344257397547462
1445	2315	344257398577799
1431	2292	344257399415877
1420	2282	344257400257303
1426	2283	344257401094816
1446	2296	344257401867486
1468	2308	344257402676848
1507	2318	344257403614386
1545	2324	344257404450268
1572	2322	344257405290784
1578	2307	344257405981884
1568	2286	344257406791717
1559	2263	344257407590890
1557	2250	344257408490551
1562	2248	344257409362779
1576	2260	344257410115403
1591	2275	344257410941280
1599	2285	344257411750442
1602	2287	344257412473378
1599	2285	344257413341405
1590	2275	344257414168335
1582	2256	344257414971265
1571	2233	344257415783403
1558	2218	344257416372207
1549	2214	344257417153506
1545	2219	344257417968693
1539	2234	344257418796452
1526	2251	344257419583877
1509	2276	344257420582467
1498	2288	344257421423604
1488	2287	344257422257210
1481	2270	344257423056707
1477	2246	344257423886907
1475	2233	344257424696671
1472	2236	344257425413906
1481	2249	344257426248861
1482	2272	344257426861126
1474	2287	344257427698186
1461	2306	344257428533686
1448	2311	344257429354713
1439	2315	344257430158995
1438	2304	344257430958816
1429	2283	344257431769937
1414	2264	344257432599366
1403	2252	344257433412606
1399	2258	344257434256967
1400	2270	344257435056995
1395	2289	344257435880865
1392	2306	344257436695006
1388	2319	344257437521908
1380	2322	344257438427365
1374	2317	344257439340549
1363	2293	344257440166951
1361	2273	344257440976407
1363	2262	344257441791925
1366	2267	344257442623861
1391	2283	344257443483709
1421	2299	344257444330686
1444	2313	344257445134570
1455	2322	344257445854923
1459	2322	344257446668758
1460	2314	344257447498744
1454	2290	344257448406169
1442	2272	344257449270807
1447	2260	344257450077929
1471	2260	344257450888989
1500	2271	344257451705389
1525	2289	344257452466089
1535	2304	344257453313708
1527	2317	344257454142849
1530	2318	344257454976031
1544	2306	344257455790698
1553	2283	344257456599081
1540	2262	344257457414732
1534	2253	344257458126587
1529	2254	344257458959763
1525	2267	344257459778745
1513	2284	344257460563742
1497	2307	344257461400433
1480	2321	344257462245175
1476	2329	344257463057035
1474	2323	344257463884524
1467	2302	344257464715680
1451	2286	344257465526882
1434	2280	344257466364981
1419	2280	344257467187351
1408	2279	344257467994948
1397	2287	344257468740515
1391	2302	344257469575586
1392	2316	344257470414268
1396	2321	344257471255613
1408	2319	344257472054915
1417	2315	344257472865312
1411	2304	344257473664010
1404	2281	344257474496462
1404	2270	344257475330540
1407	2274	344257476136629
1413	2291	344257476864159
1426	2311	344257477675857
1437	2337	344257478663753
1429	2349	344257479502258
1432	2349	344257480340074
1438	2337	344257480990713
1438	2320	344257481819202
1445	2296	344257482632641
1455	2278	344257483596140
1453	2279	344257484359014
1441	2288	344257485125558
1436	2302	344257485937961
1433	2322	344257486771187
1435	2337	344257487581625
1442	2341	344257488484621
1449	2330	344257489347562
1454	2309	344257490160802
1451	2289	344257490954147
1446	2276	344257491784651
1434	2275	344257492598449
1447	2282	344257493439446
1452	2297	344257494314319
1447	2303	344257495125660
1454	2309	344257495935927
1460	2308	344257496771367
1455	2293	344257497623803
1441	2270	344257498644088
1450	2247	344257499501001
1458	2239	344257500341570
1453	2243	344257501162408
1448	2257	344257501868993
1446	2269	344257502683642
1445	2283	344257503640345
1436	2292	344257504498692
1444	2288	344257505337836
1463	2273	344257505993344
1480	2253	344257506789504
1502	2235	344257507585115
1512	2221	344257508491056
1512	2222	344257509358313
1503	2231	344257510116984
1496	2242	344257510923800
1497	2257	344257511762735
1513	2267	344257512575687
1523	2268	344257513543857
1514	2254	344257514367470
1503	2234	344257515175138
1499	2214	344257515984879
1496	2204	344257516803946
1486	2202	344257517618059
1475	2217	344257518503777
1464	2229	344257519366329
1455	2244	344257520175515
1450	2257	344257520980778
1454	2265	344257521811787
1458	2257	344257522625094
1444	2229	344257523586489
1434	2216	344257524418515
1424	2215	344257525252553
1422	2223	344257526064669
1427	2242	344257526867619
1432	2257	344257527674385
1439	2268	344257528685804
1436	2267	344257529515346
1425	2260	344257530401108
1419	2250	344257531245675
1418	2227	344257532072340
1412	2211	344257532904504
1398	2207	344257533734477
1383	2212	344257534545274
1369	2229	344257535387957
1359	2254	344257536197611
1351	2274	344257537020117
1349	2288	344257537829564
1354	2293	344257538706642
1366	2279	344257539368829
1378	2260	344257540176066
1380	2242	344257540985819
1367	2235	344257541802746
1356	2242	344257542614650
1356	2264	344257543497253
1359	2287	344257544353057
1360	2307	344257545149356
1353	2319	344257545869818
1342	2322	344257546700208
1331	2312	344257547507302
1320	2286	344257548419761
1310	2272	344257549281707
1308	2266	344257550092574
1304	2271	344257550901223
1301	2285	344257551734852
1291	2300	344257552547054
1280	2316	344257553391060
1270	2327	344257554245400
1256	2325	344257555058406
1244	2314	344257555870097
1232	2293	344257556694772
1219	2270	344257557422059
1207	2260	344257558482544
1193	2262	344257559357345
1185	2276	344257560124153
1174	2294	344257560936973
1165	2310	344257561749434
1175	2320	344257562540381
1198	2322	344257563379953
1218	2314	344257564311509
1226	2292	344257565131816
1225	2269	344257565949383
1221	2255	344257566753967
1211	2254	344257567562490
1210	2273	344257568470990
1219	2301	344257569232521
1224	2320	344257570045046
1229	2334	344257570633287
1237	2337	344257571488901
1246	2330	344257572326391
1251	2312	344257573135395
1261	2288	344257573957050
1265	2268	344257574747701
1254	2264	344257575555230
1252	2277	344257576408351
1261	2296	344257577123221
1270	2312	344257577930404
1271	2323	344257578726741
1270	2329	344257579505399
1264	2328	344257580314282
1260	2315	344257580970318
1259	2300	344257581757930
1253	2279	344257582539339
1246	2267	344257583344540
1237	2266	344257584145677
1226	2277	344257584936912
1217	2295	344257585733164
1208	2310	344257586512287
1200	2323	344257587230002
1200	2332	344257588028218
1217	2330	344257588848376
1229	2319	344257589631124
1227	2296	344257590436698
1220	2279	344257591278728
1208	2277	344257592090111
1205	2287	344257592922075
1211	2305	344257593761142
1222	2323	344257594570674
1229	2338	344257595410299
1234	2345	344257596241519
1229	2344	344257597012346
1215	2332	344257597629925
1206	2307	344257598648727
1200	2290	344257599487290
1199	2284	344257600381376
1194	2291	344257601204562
1183	2306	344257602020515
1183	2323	344257602842473
1174	2337	344257603668123
1160	2346	344257604510559
1147	2341	344257605373654
1139	2322	344257606002120
1135	2304	344257606808691
1125	2290	344257607610856
1111	2282	344257608513139
1101	2284	344257609347731
1089	2292	344257610139238
1081	2303	344257610943558
1084	2315	344257611750011
1086	2318	344257612558150
1085	2316	344257613400273
1083	2304	344257614257875
1076	2280	344257615081473
1066	2261	344257615890101
1056	2251	344257616702107
1043	2252	344257617415349
1033	2258	344257618327109
1021	2273	344257619150273
1010	2288	344257619958833
1000	2298	344257620767986
990	2301	344257621577029
984	2291	344257622413773
976	2270	344257623244371
969	2249	344257624072783
970	2238	344257624755913
967	2239	344257625570762
973	2252	344257626414083
980	2273	344257627272192
977	2290	344257628083080
968	2301	344257628881326
968	2303	344257629682142
971	2295	344257630521471
969	2272	344257631362234
959	2255	344257632193171
951	2242	344257633007755
939	2237	344257633837900
930	2241	344257634646553
924	2255	344257635483124
922	2268	344257636323556
922	2283	344257637156588
917	2287	344257637959300
908	2284	344257638793772
900	2268	344257639597476
893	2245	344257640428620
887	2228	344257641265698
884	2221	344257642085024
883	2229	344257642893119
885	2242	344257643510516
886	2260	344257644488297
887	2277	344257645334949
884	2287	344257646145310
882	2286	344257646953598
876	2273	344257647630747
870	2250	344257648464871
867	2232	344257649329578
863	2222	344257650137991
857	2222	344257650951816
849	2232	344257651758469
839	2245	344257652572665
836	2261	344257653418306
837	2275	344257654298721
832	2285	344257655111433
830	2285	344257655921062
844	2270	344257656744606
865	2247	344257657414883
881	2232	344257658324564
888	2222	344257659177788
883	2230	344257659989212
883	2251	344257660802303
879	2274	344257661606573
871	2293	344257662258585
868	2302	344257663064764
867	2299	344257663912100
866	2287	344257664700093
861	2267	344257665517867
852	2246	344257666333963
849	2239	344257667142399
849	2244	344257667952262
846	2256	344257668807126
836	2269	344257669618200
828	2286	344257670454286
821	2297	344257671353870
811	2300	344257672170347
804	2291	344257672881296
797	2272	344257673731578
789	2259	344257674544950
783	2240	344257675385121
781	2238	344257676190404
785	2254	344257676779007
786	2270	344257677421678
792	2292	344257678438741
791	2311	344257679298424
784	2324	344257680110792
776	2323	344257680873372
767	2308	344257681689021
758	2285	344257682528235
751	2272	344257683388404
746	2268	344257684251004
741	2279	344257685072535
736	2293	344257685902205
733	2304	344257686715736
728	2313	344257687522968
719	2311	344257688450260
710	2298	344257689265458
705	2282	344257690078901
699	2257	344257690886855
694	2239	344257691696331
688	2239	344257692530999
683	2249	344257693391335
684	2266	344257694210495
685	2287	344257695020164
688	2314	344257695822051
684	2333	344257696628626
676	2332	344257697415759
672	2313	344257698342034
675	2292	344257699171253
678	2293	344257700040867
679	2316	344257700894343
679	2346	344257701710835
677	2378	344257702637657
667	2394	344257703619076
662	2395	344257704455561
658	2392	344257705291796
650	2380	344257705905867
645	2364	344257706717976
639	2351	344257707530230
635	2350	344257708444963
627	2356	344257709316838
624	2358	344257710125151
622	2365	344257710951683
621	2373	344257711763082
630	2383	344257712566538
645	2386	344257713415178
646	2378	344257714264358
641	2356	344257715071785
635	2335	344257715878798
632	2314	344257716690631
632	2296	344257717532518
633	2295	344257718521912
635	2307	344257719370486
636	2320	344257720175017
637	2333	344257721024029
632	2344	344257721842277
626	2342	344257722650753
618	2314	344257723629126
613	2297	344257724479522
608	2278	344257725317078
602	2283	344257726144590
596	2302	344257726765086
594	2318	344257727570907
589	2334	344257728333294
585	2346	344257729164824
581	2353	344257729975594
575	2343	344257730798688
569	2322	344257731604898
563	2310	344257732436648
560	2307	344257733271082
557	2306	344257734100073
556	2301	344257734920072
555	2295	344257735744649
549	2288	344257736558206
546	2285	344257737277842
539	2288	344257738107362
534	2290	344257738943083
529	2285	344257739723453
524	2272	344257740529453
516	2252	344257741369053
514	2238	344257742181505
513	2244	344257743009826
514	2253	344257743837620
514	2255	344257744653361
513	2265	344257745488682
517	2288	344257746328981
520	2301	344257747136249
526	2296	344257747964308
528	2277	344257748790049
523	2256	344257749397421
519	2248	344257750200045
518	2249	344257751011774
523	2258	344257751769968
528	2275	344257752530788
534	2296	344257753378325
534	2315	344257754205476
529	2324	344257755003792
523	2322	344257755813718
523	2311	344257756651833
525	2288	344257757413959
523	2279	344257758033355
518	2281	344257758866518
513	2288	344257759698354
508	2301	344257760392756
504	2313	344257761202013
501	2327	344257762006660
496	2336	344257762806617
490	2335	344257763676930
485	2322	344257764537481
481	2301	344257765377795
486	2278	344257766184363
494	2264	344257767007387
497	2268	344257767816960
501	2292	344257768532159
509	2313	344257769395180
521	2334	344257770201368
526	2357	344257771003915
522	2360	344257771803340
518	2350	344257772612941
516	2325	344257773451890
510	2311	344257774329363
508	2308	344257775143479
504	2314	344257775954493
505	2326	344257776758875
502	2342	344257777413373
503	2356	344257778217459
505	2373	344257778907541
507	2382	344257779715049
506	2382	344257780536755
500	2368	344257781391567
496	2345	344257782198790
494	2324	344257782999144
498	2325	344257783841294
513	2336	344257784650092
523	2357	344257785413437
520	2376	344257786269528
516	2397	344257787076240
512	2417	344257787882786
510	2420	344257788724355
509	2406	344257789599314
503	2382	344257790439868
497	2377	344257791296789
492	2382	344257792106366
489	2396	344257792915558
488	2412	344257793754359
486	2425	344257794568230
483	2436	344257795402334
482	2441	344257796227945
478	2437	344257797039851
473	2417	344257797656673
468	2402	344257798686620
463	2381	344257799529472
464	2361	344257800367690
475	2360	344257801129250
485	2371	344257801781143
489	2385	344257802592615
491	2399	344257803446148
488	2406	344257804299287
488	2404	344257805108250
484	2401	344257805932899
479	2386	344257806751704
475	2362	344257807558628
467	2346	344257808651059
460	2346	344257809412785
456	2353	344257810154812
452	2366	344257810977316
447	2382	344257811791946
442	2402	344257812669734
438	2418	344257813664262
433	2420	344257814259497
433	2411	344257815064017
429	2388	344257815866714
426	2377	344257816680374
428	2380	344257817412804
432	2395	344257818340778
437	2426	344257819178479
441	2460	344257819990248
444	2485	344257820815833
446	2502	344257821626983
445	2498	344257822430793
440	2477	344257823283765
435	2450	344257824106973
433	2441	344257824925572
444	2448	344257825756520
453	2469	344257826567523
458	2493	344257827402825
457	2510	344257828207399
455	2518	344257828912420
453	2520	344257829723930
453	2516	344257830557223
450	2501	344257831364856
447	2478	344257832171275
450	2465	344257832932644
460	2462	344257833762697
469	2470	344257834573657
477	2486	344257835431951
478	2500	344257836266731
479	2506	344257837081474
479	2507	344257837911955
481	2496	344257838745717
479	2474	344257839556947
478	2446	344257840412798
473	2425	344257841224129
471	2417	344257842036229
471	2416	344257842842505
473	2423	344257843672152
472	2437	344257844521865
470	2450	344257845381941
467	2457	344257846193207
462	2455	344257847002174
456	2446	344257847652629
455	2426	344257848669689
456	2402	344257849414583
462	2399	344257850237556
465	2410	344257851037005
473	2418	344257851783678
484	2431	344257852613551
495	2444	344257853452082
502	2454	344257854305717
505	2452	344257855106207
507	2438	344257855908745
505	2417	344257856714936
508	2396	344257857413357
512	2377	344257858045946
513	2366	344257858880348
507	2375	344257859685058
510	2401	344257860523775
514	2423	344257861366822
514	2433	344257862164241
512	2438	344257862976643
507	2434	344257863802730
503	2417	344257864630904
501	2393	344257865413906
504	2375	344257866226589
512	2372	344257867045271
521	2378	344257867865717
533	2398	344257868995074
539	2414	344257869836126
544	2421	344257870519920
546	2420	344257871418337
544	2406	344257872226457
539	2382	344257873031358
534	2357	344257873868959
529	2340	344257874658341
524	2331	344257875491558
519	2323	344257876323029
516	2330	344257877125374
510	2342	344257877907113
504	2353	344257878740825
497	2361	344257879564080
494	2364	344257880394467
489	2361	344257881204047
488	2350	344257882031031
492	2327	344257882842404
497	2314	344257883675650
503	2318	344257884509388
503	2338	344257885162312
505	2362	344257885977058
507	2388	344257886810407
511	2398	344257887589588
515	2401	344257888505273
519	2394	344257889270222
524	2385	344257890084218
522	2363	344257890893659
518	2354	344257891726086
510	2357	344257892549195
511	2358	344257893394961
514	2367	344257894239135
516	2376	344257895050442
518	2384	344257895858428
518	2387	344257896689304
513	2380	344257897525127
510	2363	344257898436227
513	2339	344257899253769
526	2324	344257900068718
543	2322	344257900876762
560	2330	344257901708669
582	2345	344257902655216
601	2363	344257903622707
609	2367	344257904456568
605	2362	344257905286990
601	2352	344257905917694
597	2334	344257906739920
590	2313	344257907545934
587	2299	344257908460047
583	2306	344257909349162
577	2328	344257910161556
573	2345	344257910972546
567	2356	344257911776466
566	2361	344257912403357
568	2364	344257913214525
577	2355	344257914068540
585	2329	344257914881166
593	2308	344257915693090
598	2301	344257916412397
605	2299	344257917225924
613	2300	344257918038464
617	2312	344257918871975
621	2344	344257919686779
622	2367	344257920520889
617	2365	344257921377342
612	2351	344257922189136
607	2344	344257922998641
604	2330	344257923844526
603	2313	344257924663516
606	2321	344257925509858
609	2344	344257926366866
613	2362	344257927172221
616	2376	344257927976997
617	2389	344257928828093
614	2396	344257929419148
609	2394	344257930242211
603	2383	344257930915397
602	2368	344257931726729
599	2344	344257932553952
601	2329	344257933416656
610	2329	344257934241683
622	2338	344257935049979
640	2356	344257935871825
659	2374	344257936500856
672	2386	344257937127178
683	2394	344257937963354
683	2388	344257938797697
677	2369	344257939603797
675	2346	344257940449240
677	2330	344257941256230
682	2326	344257942069809
687	2328	344257942902181
688	2334	344257943726330
689	2343	344257944561635
684	2353	344257945400327
684	2360	344257946212601
678	2358	344257947025690
673	2335	344257947663155
675	2311	344257948680984
684	2289	344257949413814
696	2282	344257950239406
708	2285	344257951050991
715	2303	344257951790533
717	2314	344257952624829
724	2320	344257953464842
723	2336	344257954211303
719	2344	344257955015385
711	2344	344257955827044
708	2331	344257956641379
702	2307	344257957415375
698	2296	344257958050365
696	2292	344257958881607
700	2308	344257959688294
703	2339	344257960412921
704	2360	344257961225482
708	2378	344257962053964
709	2391	344257962864744
707	2393	344257963691101
702	2382	344257964521793
698	2358	344257965365668
691	2337	344257966175352
690	2331	344257967004931
695	2346	344257967816725
702	2374	344257968659326
709	2395	344257969516910
719	2408	344257970358249
723	2412	344257971173205
724	2404	344257971997325
721	2386	344257972669928
713	2362	344257973604310
709	2345	344257974442304
703	2335	344257975248392
703	2334	344257976055328
707	2341	344257976790638
710	2350	344257977415999
708	2356	344257978223938
702	2359	344257978919276
697	2361	344257979731344
695	2358	344257980676399
704	2343	344257981547246
708	2319	344257982382202
713	2305	344257983035575
723	2299	344257983883922
739	2302	344257984702135
752	2314	344257985412681
761	2327	344257986243848
765	2339	344257987057289
766	2344	344257987867804
762	2336	344257988763288
757	2318	344257989575248
750	2292	344257990416215
742	2274	344257991243576
740	2261	344257992056630
741	2258	344257992870158
745	2269	344257993716441
743	2283	344257994558676
739	2296	344257995403485
736	2303	344257996222532
734	2302	344257997032021
732	2295	344257997674720
728	2280	344257998710686
721	2256	344257999542370
716	2247	344258000379527
715	2256	344258001160000
712	2280	344258001799217
712	2299	344258002637275
705	2314	344258003500119
698	2322	344258004358687
692	2327	344258005169861
692	2320	344258005922509
691	2301	344258006730417
691	2276	344258007558745
695	2261	344258008490870
704	2262	344258009331414
711	2273	344258010148668
706	2293	344258010972693
700	2312	344258011783815
700	2327	344258012594184
700	2338	344258013459843
692	2334	344258014294107
688	2321	344258015104010
684	2299	344258015910182
678	2292	344258016663448
676	2298	344258017504525
690	2319	344258018428040
702	2347	344258019346744
697	2375	344258020128719
689	2389	344258020933708
685	2389	344258021740809
683	2374	344258022556700
688	2351	344258023410759
693	2331	344258024254512
703	2323	344258024919132
710	2324	344258025752832
719	2336	344258026564981
723	2352	344258027401439
725	2364	344258028203884
722	2378	344258029046158
718	2384	344258029868618
709	2381	344258030702697
701	2368	344258031539959
692	2343	344258032378223
684	2329	344258033050656
679	2330	344258033888403
671	2346	344258034704414
667	2373	344258035531574
661	2394	344258036490831
654	2404	344258037178472
655	2406	344258038002008
655	2399	344258038837513
654	2382	344258039655999
651	2357	344258040511918
647	2341	344258041303668
647	2341	344258042111279
655	2356	344258042916307
663	2377	344258043743291
671	2401	344258044656910
673	2416	344258045517963
667	2427	344258046355850
662	2423	344258047159661
654	2402	344258047959529
653	2390	344258048791746
654	2388	344258049413238
651	2390	344258050232711
650	2393	344258051046980
651	2406	344258051803867
651	2420	344258052637768
651	2432	344258053476184
647	2435	344258054345214
641	2428	344258055151689
635	2410	344258055927051
634	2387	344258056737947
634	2366	344258057413796
641	2354	344258058058473
655	2351	344258058892478
679	2359	344258059720325
696	2373	344258060531203
709	2392	344258061383651
715	2406	344258062179184
718	2409	344258062991448
715	2405	344258063818318
708	2390	344258064551713
705	2368	344258065393032
709	2353	344258066192741
715	2351	344258067021805
724	2356	344258067830879
733	2371	344258068753168
738	2389	344258069414523
739	2404	344258070228436
738	2414	344258071004981
732	2415	344258071808098
729	2401	344258072555699
727	2378	344258073407815
719	2357	344258074258092
717	2348	344258075064687
732	2354	344258075870996
756	2366	344258076673556
778	2385	344258077414431
787	2402	344258078228420
790	2410	344258079083347
787	2414	344258079894462
778	2408	344258080750634
773	2385	344258081563395
772	2366	344258082405073
780	2355	344258083057575
793	2356	344258083900341
814	2363	344258084712262
836	2381	344258085382803
856	2396	344258086206108
873	2405	344258087015410
875	2411	344258087823926
866	2401	344258088679899
870	2383	344258089308267
874	2365	344258090117119
881	2344	344258090920763
890	2332	344258091729976
901	2330	344258092689145
909	2339	344258093426994
921	2355	344258094256450
932	2370	344258095060510
940	2383	344258095865336
942	2387	344258096674534
937	2379	344258097413785
930	2359	344258098238944
929	2339	344258099075415
940	2330	344258099716255
945	2328	344258100581064
957	2333	344258101427831
968	2348	344258102240361
976	2366	344258103048754
980	2380	344258103822968
981	2384	344258104638630
978	2376	344258105501142
967	2359	344258106334458
956	2334	344258107144957
946	2313	344258107955680
942	2304	344258108809878
943	2307	344258109620313
947	2323	344258110488925
944	2342	344258111321393
934	2359	344258112124042
927	2370	344258112948983
917	2368	344258113777037
908	2351	344258114590204
900	2325	344258115447967
898	2310	344258116252312
897	2306	344258117064259
899	2316	344258117871621
899	2328	344258118759735
897	2341	344258119586890
893	2354	344258120443799
882	2362	344258121253596
877	2358	344258121889413
871	2347	344258122557532
868	2327	344258123401783
868	2309	344258124230934
871	2302	344258125066196
877	2311	344258125882996
884	2326	344258126692587
890	2344	344258127542172
887	2356	344258128455982
877	2359	344258129267676
870	2355	344258130097758
872	2333	344258130906559
874	2313	344258131698899
875	2294	344258132531544
880	2281	344258133375550
893	2276	344258134207927
912	2282	344258135039545
927	2291	344258135849200
933	2300	344258136657796
931	2305	344258137485453
927	2306	344258138387486
921	2301	344258139219528
912	2293	344258140042373
902	2271	344258140828500
901	2260	344258141416548
904	2262	344258142247593
905	2268	344258143055708
898	2283	344258143880122
893	2301	344258144641972
901	2312	344258145477661
917	2319	344258146310427
917	2320	344258147136748
921	2306	344258147943288
913	2280	344258148881944
908	2263	344258149630662
907	2263	344258150468459
909	2278	344258151275034
913	2296	344258152106350
912	2313	344258152914515
908	2328	344258153744072
898	2339	344258154583121
892	2339	344258155420411
892	2322	344258156225636
900	2298	344258157057709
905	2283	344258157879579
911	2280	344258158772087
914	2291	344258159586975
914	2312	344258160473765
911	2333	344258161322829
907	2351	344258162153827
901	2359	344258162953082
894	2358	344258163780061
886	2344	344258164589568
889	2318	344258165431032
896	2304	344258166240249
905	2299	344258167064798
923	2308	344258167878622
942	2332	344258168747579
943	2354	344258169589070
934	2373	344258170474949
942	2382	344258171306434
948	2381	344258172115774
957	2366	344258172919053
965	2344	344258173748288
966	2330	344258174582350
959	2330	344258175424651
949	2345	344258176236538
939	2368	344258177062389
935	2392	344258177844659
933	2410	344258178768256
931	2414	344258179596656
932	2399	344258180478937
937	2372	344258181272631
950	2354	344258181889092
961	2347	344258182699238
978	2344	344258183655129
989	2346	344258184492268
991	2356	344258185333442
982	2370	344258186139079
983	2381	344258186967257
989	2389	344258187773645
991	2382	344258188766154
996	2360	344258189593628
1003	2339	344258190433132
1010	2330	344258191243402
1019	2329	344258192065860
1024	2343	344258192872118
1023	2356	344258193715220
1014	2368	344258194573498
1006	2373	344258195409218
1002	2369	344258196209750
1007	2360	344258196972203
1008	2342	344258197568016
1008	2322	344258198476814
998	2306	344258199316390
992	2302	344258200118519
991	2309	344258200928851
998	2324	344258201725832
1019	2343	344258202659038
1034	2359	344258203511823
1041	2366	344258204511174
1045	2361	344258205350003
1048	2344	344258206161123
1045	2320	344258206990983
1038	2305	344258207800594
1024	2303	344258208815492
1013	2318	344258209650340
1012	2342	344258210497232
1015	2362	344258211204755
1019	2374	344258211992613
1022	2386	344258212807082
1020	2383	344258213733776
1016	2363	344258214593347
1007	2340	344258215433711
999	2326	344258216244364
989	2324	344258217080622
980	2329	344258217891215
967	2342	344258218786037
962	2356	344258219623046
965	2370	344258220522622
978	2375	344258221360320
990	2376	344258222184546
996	2365	344258222990481
999	2341	344258223815837
1001	2323	344258224648678
1002	2319	344258225484818
1005	2325	344258226316891
1009	2337	344258227112326
1011	2348	344258227930463
1016	2363	344258228773811
1025	2372	344258229599590
1026	2368	344258230433385
1017	2347	344258231245004
1023	2322	344258232073757
1040	2304	344258232853121
1057	2296	344258233734207
1069	2303	344258234662187
1076	2322	344258235501006
1086	2343	344258236336727
1103	2361	344258237146942
1119	2365	344258237891106
1135	2358	344258238792262
1149	2338	344258239591939
1158	2315	344258240439286
1159	2303	344258241249854
1150	2306	344258242072299
1146	2322	344258242877860
1147	2345	344258243726396
1154	2364	344258244579941
1157	2378	344258245427222
1159	2378	344258246235378
1157	2368	344258247041289
1151	2351	344258247847647
1143	2324	344258248780404
1131	2311	344258249612415
1118	2313	344258250449948
1106	2323	344258251256733
1096	2339	344258252077565
1086	2359	344258252888565
1076	2375	344258253727117
1065	2381	344258254577759
1057	2381	344258255415427
1048	2366	344258256223104
1041	2342	344258257050178
1032	2330	344258257864083
1019	2327	344258258782063
1010	2337	344258259605030
999	2361	344258260534215
990	2378	344258261346733
983	2390	344258262152948
974	2395	344258262932592
966	2393	344258263733605
956	2378	344258264541312
947	2356	344258265354408
938	2335	344258266135795
928	2327	344258266929099
918	2340	344258267711244
911	2368	344258268703134
906	2391	344258269540905
900	2408	344258270351227
892	2418	344258271129685
883	2412	344258271906342
877	2398	344258272547660
874	2381	344258273365468
870	2356	344258274193033
868	2349	344258275006216
866	2354	344258275813538
867	2370	344258276588385
865	2393	344258277478477
863	2408	344258278393894
859	2416	344258279241929
854	2413	344258280059972
846	2399	344258280871847
838	2375	344258281698141
830	2355	344258282535412
826	2350	344258283532747
824	2354	344258284397743
824	2370	344258285101383
825	2385	344258285909063
825	2400	344258286713492
823	2411	344258287555895
818	2414	344258288477920
810	2401	344258289223551
801	2378	344258290047245
792	2358	344258290860956
787	2352	344258291669229
787	2355	344258292509756
790	2369	344258293352885
793	2388	344258294197145
793	2405	344258295017462
788	2418	344258295826978
781	2418	344258296659379
772	2410	344258297498014
764	2386	344258298381155
757	2363	344258299197128
756	2355	344258299975872
752	2354	344258300758401
751	2367	344258301609103
743	2382	344258302410371
737	2393	344258303220162
730	2402	344258303883155
732	2407	344258304694173
737	2404	344258305533337
735	2394	344258306384991
730	2370	344258307190015
726	2357	344258308000106
720	2356	344258308768124
717	2362	344258309604852
711	2375	344258310438067
703	2388	344258311265207
698	2400	344258312080635
699	2405	344258312885912
699	2398	344258313720573
702	2381	344258314568572
705	2356	344258315417318
713	2339	344258316244918
719	2333	344258317082379
725	2338	344258317901364
727	2354	344258318803387
725	2368	344258319616899
719	2379	344258320476510
713	2384	344258321328786
708	2375	344258322138126
704	2355	344258322947193
702	2331	344258323797023
700	2318	344258324613165
702	2315	344258325460124
705	2325	344258326234326
708	2339	344258327042832
710	2355	344258327853847
712	2370	344258328768541
709	2376	344258329414894
705	2376	344258330226620
698	2364	344258330972223
691	2343	344258331780641
683	2326	344258332596402
679	2323	344258333439498
673	2331	344258334271373
668	2350	344258335083349
668	2367	344258335904019
668	2384	344258336710292
668	2397	344258337415029
664	2403	344258338245793
658	2397	344258339081081
650	2376	344258339888559
644	2357	344258340659491
636	2348	344258341337620
631	2346	344258342154009
625	2358	344258342988913
619	2379	344258343815849
614	2401	344258344626596
616	2422	344258345416813
614	2432	344258346232579
610	2424	344258347036082
607	2403	344258347864058
606	2377	344258348699095
607	2363	344258349547654
607	2363	344258350400687
612	2375	344258351209509
615	2392	344258352020523
617	2410	344258352850725
616	2423	344258353746377
614	2430	344258354582482
608	2427	344258355417094
599	2411	344258356227923
594	2387	344258357037761
590	2372	344258357880563
592	2367	344258358804882
593	2375	344258359619317
594	2393	344258360495973
595	2414	344258361345362
592	2428	344258362158848
589	2435	344258362986566
582	2431	344258363810921
578	2410	344258364457387
576	2389	344258365285761
570	2374	344258366095362
573	2370	344258366901481
575	2377	344258367726021
574	2394	344258368742833
569	2410	344258369422111
564	2421	344258370257245
558	2427	344258371070904
551	2425	344258371880135
549	2412	344258372577159
544	2394	344258373433229
539	2369	344258374266418
532	2355	344258375100667
526	2358	344258375904194
521	2372	344258376714418
517	2389	344258377414945
518	2402	344258378230743
524	2416	344258378876838
529	2421	344258379697730
539	2418	344258380538594
550	2400	344258381375401
554	2374	344258382180111
557	2357	344258382991486
560	2351	344258383824348
566	2355	344258384656706
567	2369	344258385413919
567	2384	344258386221906
567	2398	344258387019921
561	2404	344258387824404
555	2399	344258388656916
550	2382	344258389517336
548	2358	344258390348254
542	2334	344258391152959
543	2325	344258391973369
543	2330	344258392784811
544	2343	344258393741213
541	2354	344258394598853
540	2368	344258395437660
536	2378	344258396243640
533	2375	344258397046496
529	2355	344258397842031
523	2330	344258398809525
517	2315	344258399642941
514	2309	344258400485607
514	2315	344258401267253
514	2329	344258402075608
512	2344	344258402884874
512	2359	344258403758530
507	2363	344258404615536
506	2355	344258405415265
508	2341	344258406226375
509	2321	344258407051530
510	2296	344258407873510
516	2290	344258408841283
521	2299	344258409655317
526	2316	344258410491403
532	2333	344258411299996
536	2346	344258412131397
537	2350	344258412938979
532	2345	344258413768974
529	2328	344258414611835
524	2305	344258415450806
524	2289	344258416258634
524	2285	344258417088190
528	2298	344258417899893
532	2316	344258418807863
534	2330	344258419642150
534	2342	344258420482199
533	2346	344258421293924
529	2340	344258421898664
525	2327	344258422594151
523	2302	344258423602600
523	2287	344258424479874
529	2281	344258425290916
539	2283	344258426099272
548	2292	344258426728769
551	2304	344258427564768
554	2318	344258428582764
550	2335	344258429444849
546	2335	344258430261817
542	2318	344258430976319
538	2298	344258431795855
540	2278	344258432613849
544	2270	344258433432914
554	2274	344258434280299
564	2290	344258435087586
569	2313	344258435898245
572	2334	344258436659328
577	2346	344258437494988
575	2351	344258438302369
572	2341	344258439162332
565	2319	344258439976233
564	2300	344258440789893
566	2293	344258441618321
572	2300	344258442507540
578	2320	344258443348351
583	2340	344258444193222
585	2357	344258445004357
581	2363	344258445814090
575	2357	344258446616417
570	2346	344258447508453
568	2327	344258448417427
569	2302	344258449250517
573	2294	344258450037250
576	2298	344258450847401
584	2311	344258451678479
590	2329	344258452512503
593	2347	344258453352328
599	2365	344258454175310
601	2371	344258454992469
600	2365	344258455803619
593	2343	344258456599088
588	2324	344258457444491
582	2318	344258458253577
583	2324	344258459107750
584	2339	344258459922530
586	2360	344258460732032
588	2381	344258461417018
586	2392	344258462096997
582	2398	344258462906743
577	2395	344258463752615
573	2379	344258464592897
570	2355	344258465434180
569	2336	344258466260573
573	2330	344258467070398
585	2339	344258467881650
598	2363	344258468804738
603	2382	344258469417313
605	2395	344258470224199
604	2413	344258471036382
602	2424	344258471846025
602	2423	344258472600380
598	2408	344258473453434
592	2385	344258474291337
592	2378	344258475100918
595	2389	344258475935809
597	2409	344258476711156
602	2433	344258477416164
606	2452	344258478239246
607	2467	344258478854427
606	2470	344258479662186
600	2464	344258480519018
597	2442	344258481303459
598	2418	344258482113026
600	2401	344258482917438
605	2401	344258483755958
617	2422	344258484580902
625	2442	344258485458205
634	2459	344258486269078
642	2469	344258487077217
645	2468	344258487904597
642	2454	344258488824713
637	2427	344258489415937
631	2412	344258490250895
625	2395	344258491054865
623	2388	344258491875756
621	2386	344258492635687
619	2394	344258493346287
620	2406	344258494174718
617	2420	344258495008327
615	2429	344258495821729
611	2432	344258496629790
604	2423	344258497414548
599	2403	344258498209451
590	2379	344258499042211
585	2362	344258499869643
578	2357	344258500675688
574	2361	344258501516829
569	2376	344258502489559
562	2394	344258503349825
553	2413	344258504182146
551	2430	344258505016912
554	2437	344258505829507
564	2429	344258506644737
572	2407	344258507479099
576	2404	344258508286135
579	2416	344258509118130
586	2438	344258509951658
588	2466	344258510760214
589	2492	344258511599944
586	2512	344258512461075
581	2513	344258513270491
579	2493	344258514098307
573	2474	344258514924292
570	2462	344258515733683
568	2455	344258516578107
572	2457	344258517489929
579	2467	344258518307634
592	2479	344258519140204
602	2488	344258519948072
606	2496	344258520759788
605	2496	344258521597180
600	2483	344258522455629
595	2460	344258523270399
589	2436	344258524099727
587	2425	344258524900989
585	2426	344258525723207
583	2443	344258526561556
584	2462	344258527409767
587	2471	344258528215915
593	2475	344258528862558
595	2471	344258529692937
596	2455	344258530526329
591	2435	344258531300520
593	2410	344258532095586
611	2393	344258532901805
636	2390	344258533765775
659	2399	344258534628336
680	2410	344258535434319
689	2420	344258536238879
688	2426	344258537048941
682	2424	344258537868302
682	2412	344258538813902
686	2389	344258539719240
696	2361	344258540644755
708	2340	344258541357610
721	2329	344258542182472
731	2326	344258542994379
728	2335	344258543803416
719	2349	344258544626927
711	2365	344258545470574
706	2376	344258546277193
699	2376	344258547095669
693	2360	344258547903805
685	2333	344258548735277
680	2316	344258549480321
676	2308	344258550276501
670	2310	344258551084596
667	2322	344258551728236
674	2335	344258552563835
680	2351	344258553407586
676	2365	344258554261224
671	2366	344258555078799
665	2356	344258555871369
661	2333	344258556634630
660	2310	344258557472366
662	2291	344258558284109
665	2290	344258559139064
661	2310	344258559954336
656	2336	344258560764559
649	2363	344258561664660
642	2381	344258562506401
635	2386	344258563316974
633	2370	344258564165138
630	2349	344258564980044
626	2335	344258565791064
618	2333	344258566619456
611	2341	344258567458086
606	2353	344258568270300
605	2368	344258569125685
607	2375	344258569951503
615	2376	344258570760561
618	2370	344258571613414
614	2350	344258572457355
613	2324	344258573269837
613	2305	344258574095659
617	2291	344258574903602
614	2289	344258575713148
614	2301	344258576573666
625	2316	344258577408718
640	2325	344258578222060
657	2332	344258578859533
670	2336	344258579671593
683	2332	344258580511630
703	2312	344258581309264
718	2300	344258581904132
717	2295	344258582715130
714	2297	344258583547733
709	2310	344258584406953
713	2322	344258585115709
715	2332	344258585942413
724	2340	344258586751360
737	2349	344258587568374
754	2348	344258588499900
779	2330	344258589242449
793	2308	344258589899083
807	2296	344258590677267
818	2284	344258591359551
817	2285	344258592170190
807	2294	344258593000549
799	2311	344258593819600
793	2333	344258594500235
793	2348	344258595286883
796	2360	344258596090005
807	2359	344258596917186
820	2339	344258597612700
826	2316	344258598496925
822	2293	344258599354797
820	2279	344258600166847
830	2282	344258600947413
844	2299	344258601714896
866	2325	344258602406421
877	2337	344258603184160
891	2350	344258603849883
899	2352	344258604657666
908	2342	344258605362581
912	2324	344258606142730
914	2306	344258606941424
910	2294	344258607719296
901	2294	344258608591840
893	2301	344258609453730
885	2312	344258610078153
884	2322	344258610854144
897	2329	344258611631617
932	2333	344258612322984
969	2336	344258613132602
1008	2330	344258613980850
1029	2312	344258614791602
1031	2287	344258615626128
1021	2270	344258616365500
1015	2267	344258617175195
1016	2275	344258617988116
1013	2295	344258618825924
1020	2315	344258619638735
1023	2339	344258620476899
1016	2354	344258621269371
1008	2354	344258622076404
1007	2338	344258622886230
1003	2312	344258623780378
994	2303	344258624611710
983	2303	344258625414025
974	2314	344258626237549
974	2331	344258627036888
984	2343	344258627856005
996	2349	344258628712952
998	2352	344258629554234
990	2348	344258630362106
984	2337	344258631161280
978	2313	344258631978982
973	2296	344258632791430
981	2292	344258633770396
998	2300	344258634618274
1014	2318	344258635506383
1025	2334	344258636367355
1034	2345	344258637117363
1031	2351	344258637929190
1019	2346	344258638832278
1008	2326	344258639645718
998	2306	344258640533099
986	2302	344258641378984
985	2308	344258642189681
999	2319	344258643001839
1008	2336	344258643822523
1013	2350	344258644645803
