1015	2283	345038259815753
1011	2281	345038260697950
1014	2287	345038261424484
1019	2298	345038262251578
1025	2315	345038263060582
1023	2332	345038263875177
1018	2347	345038264630553
1011	2348	345038265351392
1002	2340	345038266186391
992	2317	345038267013972
987	2298	345038267824188
985	2291	345038268657397
989	2299	345038269413471
999	2314	345038270223418
1009	2335	345038271054306
1013	2350	345038271876932
1013	2363	345038272694296
1007	2367	345038273538020
997	2355	345038274346443
988	2331	345038275165615
985	2314	345038275822775
986	2305	345038276680353
987	2300	345038277517761
993	2310	345038278336081
1005	2325	345038279143224
1022	2340	345038279959044
1037	2347	345038280780166
1039	2350	345038281655121
1035	2344	345038282431489
1024	2326	345038283240887
1012	2304	345038284046489
1004	2292	345038284856914
1006	2289	345038285662796
1014	2299	345038286542989
1032	2320	345038287353266
1049	2337	345038288162711
1060	2348	345038288932558
1066	2354	345038289767616
1069	2349	345038290673527
1060	2331	345038291549040
1049	2307	345038292355473
1037	2291	345038293164224
1027	2284	345038293964094
1022	2290	345038294864220
1023	2310	345038295718012
1023	2331	345038296595538
1023	2348	345038297406995
1022	2359	345038298216575
1015	2360	345038299017585
1005	2346	345038299824461
991	2320	345038300642540
982	2302	345038301477029
978	2292	345038302294233
979	2295	345038303106507
985	2309	345038303936302
992	2334	345038304768374
997	2358	345038305620494
999	2374	345038306454273
996	2374	345038307063039
989	2364	345038307852074
979	2341	345038308674986
973	2324	345038309579940
971	2314	345038310394500
971	2311	345038311192184
978	2321	345038312007002
982	2335	345038312853282
984	2349	345038313660517
985	2358	345038314482843
976	2362	345038315299218
969	2354	345038316131361
965	2331	345038316936199
961	2309	345038317778809
961	2295	345038318710902
964	2292	345038319529852
972	2307	345038320345795
981	2328	345038321188526
986	2346	345038322006781
982	2358	345038322832752
974	2364	345038323690348
965	2360	345038324530390
959	2338	345038325354565
958	2320	345038326181350
960	2316	345038327006904
963	2324	345038327816967
974	2342	345038328691334
978	2367	345038329554401
980	2395	345038330145581
976	2409	345038331004484
970	2415	345038331827433
960	2406	345038332657005
954	2382	345038333465719
952	2368	345038334062510
951	2362	345038334876828
950	2360	345038335738208
952	2370	345038336606159
959	2393	345038337400728
962	2416	345038338144909
961	2435	345038338963709
955	2445	345038339802045
943	2441	345038340563701
937	2427	345038341402421
929	2401	345038342221350
925	2386	345038343028486
927	2380	345038343837893
932	2381	345038344573412
935	2395	345038345388324
937	2420	345038346233199
935	2440	345038347019725
932	2457	345038347823857
926	2463	345038348658650
918	2453	345038349323042
911	2429	345038350139752
906	2418	345038351087857
906	2419	345038351900890
914	2427	345038352726673
922	2446	345038353562884
931	2469	345038354371465
935	2488	345038355198111
937	2502	345038356066302
932	2502	345038356865838
923	2488	345038357702319
914	2462	345038358545208
911	2445	345038359355938
911	2438	345038360192836
914	2446	345038361029522
919	2464	345038361846756
922	2487	345038362682652
923	2506	345038363332932
920	2514	345038364147112
912	2525	345038364982212
901	2519	345038365929417
890	2494	345038366775626
886	2470	345038367458068
883	2458	345038368271136
886	2457	345038369092315
889	2468	345038369895135
894	2497	345038370755607
897	2530	345038371583958
899	2553	345038372390682
898	2564	345038373192435
891	2561	345038373924519
882	2541	345038374779784
880	2516	345038375622530
877	2499	345038376450031
872	2495	345038377211937
871	2501	345038377849965
870	2516	345038378689582
870	2544	345038379541909
867	2570	345038380348552
860	2583	345038381180654
853	2583	345038381963684
844	2568	345038382797550
837	2541	345038383643516
832	2524	345038384473211
831	2520	345038385294424
831	2528	345038386136011
837	2549	345038386944471
839	2573	345038387782907
838	2592	345038388623967
834	2602	345038389461310
826	2598	345038390276231
815	2582	345038391116252
809	2555	345038391933909
808	2533	345038392717142
807	2526	345038393562965
808	2534	345038394394720
808	2552	345038395209923
809	2586	345038396040778
807	2615	345038396875210
803	2632	345038397723853
796	2634	345038398560344
787	2617	345038399384542
783	2591	345038400194687
779	2581	345038401034309
779	2580	345038401663026
782	2586	345038402310108
787	2598	345038403116290
793	2621	345038403925852
798	2642	345038404752042
795	2660	345038405594682
787	2675	345038406444692
780	2675	345038407251839
772	2656	345038408062744
763	2631	345038408865298
758	2614	345038409662133
756	2614	345038410485841
754	2629	345038411219654
760	2653	345038412045731
764	2685	345038412866177
767	2709	345038413705252
763	2720	345038414604503
754	2717	345038415346306
750	2697	345038416172429
746	2666	345038416991439
745	2650	345038417805505
742	2644	345038418661487
743	2650	345038419446867
747	2672	345038420255165
749	2703	345038421082189
749	2731	345038421672833
750	2749	345038422480585
746	2760	345038423307441
740	2753	345038424117474
735	2726	345038424938260
733	2709	345038425720969
733	2706	345038426577513
735	2711	345038427396424
739	2727	345038428233152
744	2750	345038429058043
744	2774	345038429663233
744	2787	345038430477369
738	2796	345038431316651
731	2789	345038431969634
725	2764	345038432925465
721	2738	345038433774875
717	2724	345038434624194
715	2725	345038435456822
718	2734	345038436219138
721	2753	345038437038699
729	2773	345038437661798
732	2784	345038438480812
735	2795	345038439289568
735	2792	345038440116162
731	2771	345038441014989
724	2741	345038441828762
718	2722	345038442471306
716	2717	345038443277335
716	2722	345038444085786
720	2739	345038444874476
728	2758	345038445713088
733	2774	345038446570598
732	2783	345038447393508
724	2783	345038448203343
717	2771	345038449012007
713	2746	345038449663005
708	2723	345038450474680
705	2703	345038451305118
707	2700	345038452118582
712	2708	345038452851295
718	2729	345038453696929
719	2756	345038454560476
716	2783	345038455376729
710	2804	345038456214242
706	2806	345038456969769
698	2789	345038457662618
698	2767	345038458481303
696	2753	345038459099504
692	2748	345038459917628
690	2754	345038460752503
692	2769	345038461600289
694	2798	345038462419283
694	2822	345038463214249
694	2838	345038464025769
688	2841	345038464841808
680	2830	345038465660795
675	2802	345038466539514
672	2781	345038467354335
667	2769	345038468162740
663	2767	345038468923945
664	2777	345038469761726
665	2799	345038470676851
667	2822	345038471559144
663	2836	345038472355022
657	2844	345038473171020
650	2837	345038473977098
643	2813	345038474810631
636	2791	345038475652835
630	2784	345038476479686
628	2789	345038477296035
627	2807	345038478091693
627	2831	345038478930074
629	2851	345038479776422
627	2862	345038480691707
621	2861	345038481517148
617	2849	345038482328717
616	2823	345038483143067
615	2795	345038483969695
614	2784	345038484800997
614	2782	345038485642741
620	2796	345038486474018
624	2826	345038487292186
627	2850	345038488103982
626	2866	345038488931145
621	2873	345038489772612
614	2868	345038490666397
610	2839	345038491544355
605	2813	345038492352334
601	2803	345038493162419
602	2809	345038493981932
604	2831	345038494919770
608	2862	345038495906218
609	2881	345038496601605
607	2890	345038497421825
604	2893	345038498239282
597	2879	345038499049257
589	2852	345038499842065
583	2830	345038500725161
582	2820	345038501575542
584	2815	345038502394133
587	2825	345038503212925
590	2850	345038504046833
593	2875	345038504867519
590	2893	345038505715937
586	2900	345038506573266
581	2894	345038507389774
576	2868	345038508199117
574	2849	345038508998761
573	2846	345038509816857
577	2853	345038510726916
581	2868	345038511585213
587	2891	345038512397045
583	2908	345038513206024
576	2917	345038514017196
575	2916	345038514832372
577	2898	345038515801348
581	2866	345038516662429
585	2844	345038517472087
589	2829	345038518290149
592	2827	345038519093513
598	2837	345038519903315
605	2862	345038520805110
612	2880	345038521606727
611	2890	345038522426720
609	2890	345038523241921
604	2868	345038524052883
598	2841	345038524871076
594	2824	345038525721475
600	2813	345038526611889
611	2811	345038527424080
624	2820	345038528238166
635	2837	345038529070411
639	2847	345038529911568
642	2850	345038530947136
638	2845	345038531792065
631	2825	345038532638832
624	2798	345038533460759
619	2784	345038534103676
619	2780	345038534921911
618	2778	345038535889508
626	2791	345038536756312
635	2815	345038537598501
642	2831	345038538228510
644	2837	345038539033992
645	2835	345038539840759
642	2816	345038540760944
638	2783	345038541643944
631	2763	345038542446716
625	2748	345038543271597
619	2743	345038544077550
616	2750	345038544946638
612	2773	345038545900217
610	2795	345038546610772
606	2805	345038547422963
597	2806	345038548229983
592	2797	345038548980110
585	2770	345038549827939
582	2745	345038550742564
580	2733	345038551604750
579	2733	345038552419449
580	2743	345038553239499
584	2762	345038554076374
583	2780	345038554898107
581	2792	345038555741140
575	2796	345038556604191
567	2788	345038557400167
563	2764	345038558138367
563	2738	345038558974073
564	2717	345038559785341
561	2717	345038560676287
562	2735	345038561480998
563	2760	345038562268511
562	2782	345038563053484
560	2798	345038563843526
557	2806	345038564652944
551	2794	345038565333863
548	2768	345038566233117
546	2744	345038566995467
544	2728	345038567796750
545	2718	345038568611055
545	2719	345038569397884
547	2734	345038570184506
554	2757	345038571014883
557	2773	345038571579043
555	2781	345038572362972
555	2787	345038573094326
553	2785	345038573710035
549	2769	345038574557225
547	2745	345038575395127
546	2736	345038576201508
547	2737	345038577010015
550	2748	345038577827060
557	2773	345038578668459
565	2797	345038579477746
570	2806	345038580291323
565	2800	345038581127403
561	2783	345038581937125
556	2756	345038582765380
556	2730	345038583597909
555	2710	345038584402849
557	2700	345038585235698
562	2701	345038586066682
565	2719	345038586879034
573	2742	345038587707813
578	2754	345038588510546
576	2762	345038589331587
573	2757	345038590163207
567	2743	345038591015048
563	2713	345038591835864
561	2691	345038592674553
560	2680	345038593498305
560	2690	345038594318915
563	2712	345038595138266
568	2734	345038595975061
568	2750	345038596617956
565	2759	345038597458389
560	2765	345038598279570
556	2754	345038599066557
549	2726	345038599849486
549	2705	345038600715592
550	2705	345038601571634
554	2709	345038602375909
557	2724	345038603156122
563	2747	345038603943525
565	2765	345038604672471
565	2774	345038605450618
561	2775	345038606251144
556	2766	345038606952492
553	2745	345038607752778
551	2722	345038608561430
551	2711	345038609352904
549	2707	345038610137613
547	2719	345038611024530
551	2742	345038611823028
553	2763	345038612623525
555	2779	345038613221746
553	2787	345038614065524
549	2784	345038614880853
548	2764	345038615723043
541	2737	345038616575535
541	2718	345038617386686
540	2714	345038618145095
534	2724	345038618989989
534	2743	345038619824292
539	2779	345038620675316
542	2795	345038621492058
547	2805	345038622302881
546	2804	345038623120924
543	2790	345038623956028
535	2761	345038624799103
529	2742	345038625649284
523	2734	345038626504163
518	2738	345038627323522
514	2754	345038627915149
516	2770	345038628769637
516	2790	345038629612968
510	2803	345038630433656
507	2809	345038631266136
504	2805	345038632038194
503	2782	345038632849521
498	2756	345038633665275
494	2744	345038634478457
489	2740	345038635286769
483	2745	345038636109204
481	2766	345038636930043
482	2793	345038637769160
483	2805	345038638627526
478	2804	345038639438348
472	2788	345038640251402
471	2762	345038641106906
466	2736	345038641926667
460	2721	345038642737981
455	2713	345038643564328
450	2714	345038644372672
445	2724	345038645177302
441	2742	345038645947005
437	2752	345038646668984
434	2753	345038647481548
428	2747	345038648315944
427	2727	345038649110448
428	2701	345038649898968
432	2684	345038650762607
434	2674	345038651632855
438	2672	345038652449361
440	2683	345038653285137
443	2700	345038654116527
446	2710	345038654887824
447	2712	345038655747147
446	2707	345038656731523
444	2683	345038657590773
437	2656	345038658322935
434	2640	345038659111032
431	2628	345038659931786
433	2630	345038660692882
435	2640	345038661602155
441	2665	345038662416977
442	2692	345038663243968
441	2706	345038664053669
438	2703	345038664862700
436	2685	345038665660397
433	2661	345038666491202
429	2644	345038667301317
430	2641	345038668089842
433	2647	345038668899436
438	2660	345038669511215
443	2676	345038670151900
447	2695	345038671034032
451	2707	345038671623502
451	2710	345038672422575
452	2707	345038673240891
447	2689	345038674063373
443	2659	345038674899608
439	2641	345038675744027
438	2632	345038676610674
438	2638	345038677375445
441	2656	345038678196812
448	2683	345038679013871
460	2702	345038679847577
484	2697	345038680763252
502	2681	345038681636654
506	2657	345038682415008
501	2634	345038683227958
498	2615	345038684044300
499	2605	345038684805454
505	2604	345038685656851
513	2613	345038686494032
524	2631	345038687330845
537	2644	345038688142058
549	2656	345038688949682
558	2659	345038689637296
562	2650	345038690373029
563	2627	345038691212029
561	2606	345038692042572
556	2590	345038692836980
548	2579	345038693679642
543	2590	345038694484592
544	2611	345038695301728
547	2640	345038696128660
551	2663	345038696946700
556	2673	345038697662338
557	2667	345038698476888
552	2644	345038699282952
546	2614	345038700096466
538	2594	345038701071964
532	2587	345038701916103
528	2594	345038702762224
528	2613	345038703601860
529	2639	345038704407795
528	2660	345038705225579
526	2673	345038706054843
525	2671	345038706905196
522	2654	345038707743613
516	2632	345038708639847
510	2621	345038709374604
504	2613	345038710190094
500	2614	345038711069217
498	2623	345038711885265
496	2645	345038712845631
490	2659	345038713694395
485	2666	345038714519244
482	2663	345038715337530
480	2647	345038716174424
480	2621	345038716982980
477	2606	345038717668060
474	2606	345038718481907
473	2618	345038719315438
471	2631	345038720134605
472	2647	345038721045633
468	2663	345038721888118
462	2667	345038722718312
457	2659	345038723563351
451	2637	345038724375541
451	2606	345038725192890
457	2582	345038725993517
456	2568	345038726846231
459	2575	345038727695596
465	2588	345038728512660
468	2606	345038729325161
469	2623	345038730132760
466	2633	345038731036278
460	2637	345038731864918
458	2621	345038732697989
460	2597	345038733507353
463	2588	345038734125969
468	2587	345038734936941
478	2588	345038735774293
487	2599	345038736618760
496	2620	345038737432035
504	2639	345038738245138
510	2649	345038739066233
508	2647	345038739874974
501	2625	345038740621734
497	2607	345038741469852
491	2589	345038742277799
490	2575	345038743094052
497	2568	345038743905247
496	2570	345038744758670
495	2585	345038745610727
495	2605	345038746468867
496	2615	345038747281298
495	2623	345038748107541
498	2628	345038748868664
497	2608	345038749714336
494	2594	345038750530247
490	2602	345038751367889
489	2607	345038752188901
492	2611	345038752878182
496	2623	345038753661789
499	2639	345038754481284
499	2645	345038755290638
498	2651	345038756119128
498	2647	345038756940603
492	2634	345038757785089
486	2610	345038758645228
480	2584	345038759454482
477	2579	345038760267191
475	2596	345038761096595
478	2627	345038761869539
483	2656	345038762716027
486	2676	345038763619108
485	2683	345038764439487
481	2679	345038765262089
478	2652	345038766118668
476	2642	345038766939137
481	2641	345038767783624
488	2650	345038768773223
496	2666	345038769508600
501	2678	345038770330167
506	2688	345038771165119
511	2692	345038771988942
519	2690	345038772822264
524	2678	345038773599591
520	2656	345038774416464
517	2631	345038775236078
514	2602	345038776061536
511	2587	345038776877233
515	2597	345038777664526
519	2621	345038778496867
525	2647	345038779318340
526	2673	345038780134578
531	2692	345038781134592
529	2690	345038781957775
525	2667	345038782733333
526	2647	345038783570323
531	2640	345038784385493
533	2649	345038785200141
538	2660	345038786047005
547	2681	345038786865817
551	2698	345038787706949
550	2693	345038788506831
544	2681	345038789328925
543	2668	345038790141323
545	2648	345038791045736
546	2621	345038791864502
548	2600	345038792697954
555	2584	345038793531638
556	2578	345038794346890
557	2590	345038795152047
565	2599	345038795977647
569	2608	345038796751650
566	2614	345038797585488
567	2629	345038798409488
565	2618	345038799224863
560	2590	345038800046073
554	2563	345038801053741
557	2564	345038801876604
563	2585	345038802723412
569	2606	345038803577302
581	2644	345038804363607
593	2661	345038805176200
598	2655	345038806034764
598	2641	345038806856599
595	2614	345038807699555
591	2603	345038808509970
588	2587	345038809332062
587	2563	345038810153868
581	2563	345038811079982
581	2582	345038811898126
589	2613	345038812745943
591	2632	345038813585613
593	2631	345038814398160
593	2624	345038815180507
592	2605	345038816015055
585	2577	345038816862212
582	2554	345038817700551
580	2540	345038818521045
582	2547	345038819400875
590	2569	345038820182404
610	2626	345038820940671
617	2667	345038821783568
614	2677	345038822618216
607	2649	345038823446090
600	2624	345038824298866
597	2607	345038825128919
589	2602	345038826003517
588	2604	345038826929058
599	2612	345038827760788
615	2631	345038828674557
627	2651	345038829529910
633	2658	345038830329428
629	2635	345038831189806
626	2632	345038832007260
625	2611	345038832854782
619	2588	345038833695417
617	2586	345038834508823
618	2590	345038835323311
630	2599	345038836137588
644	2614	345038836955490
657	2634	345038837807612
661	2642	345038838645737
666	2638	345038839460240
668	2622	345038840273301
667	2598	345038841128651
662	2571	345038841929418
658	2549	345038842768020
659	2538	345038843618235
664	2532	345038844336418
669	2539	345038845149206
675	2571	345038846006735
675	2608	345038846854760
670	2614	345038847700145
662	2591	345038848531146
656	2571	345038849349157
652	2562	345038850167990
647	2539	345038851130831
652	2532	345038851952078
659	2551	345038852770271
662	2569	345038853629904
669	2619	345038854432219
683	2678	345038855243260
688	2685	345038856062555
684	2664	345038856876729
689	2638	345038857713585
694	2621	345038858517288
694	2606	345038859323831
695	2592	345038860137265
695	2585	345038860997545
693	2603	345038861840638
692	2621	345038862679235
683	2644	345038863263965
681	2665	345038864070508
684	2670	345038864883919
683	2648	345038865723260
681	2635	345038866583498
681	2617	345038867390834
675	2614	345038868195928
668	2628	345038869002128
670	2644	345038869660914
675	2663	345038870494731
690	2655	345038871336368
700	2635	345038872148175
703	2634	345038872959624
704	2635	345038873649216
704	2617	345038874463701
705	2590	345038875302610
700	2569	345038876133857
695	2565	345038876949074
689	2586	345038877665678
694	2601	345038878454014
698	2615	345038879272188
705	2640	345038879892022
712	2666	345038880920843
716	2678	345038881788948
716	2653	345038882629580
712	2623	345038883444884
707	2617	345038884356429
710	2669	345038885180140
711	2681	345038886073979
707	2673	345038886871001
711	2678	345038887725267
720	2683	345038888536823
727	2663	345038889350073
728	2642	345038890155703
728	2643	345038891056563
720	2632	345038891919508
714	2620	345038892641247
708	2620	345038893453212
700	2621	345038894263424
698	2631	345038895061827
690	2657	345038895993754
691	2685	345038896836273
692	2712	345038897663482
688	2721	345038898479207
682	2698	345038899292973
673	2685	345038900120748
668	2672	345038901093215
662	2686	345038901906991
656	2678	345038902737994
656	2686	345038903546562
651	2704	345038904352985
644	2718	345038905180339
644	2731	345038906008357
647	2726	345038906851830
649	2706	345038907722403
654	2701	345038908514150
656	2694	345038909233488
654	2688	345038910041887
656	2720	345038911053094
663	2744	345038911847858
665	2759	345038912655530
656	2764	345038913248871
652	2771	345038914031437
645	2761	345038914831217
641	2750	345038915639877
639	2733	345038916437390
633	2710	345038917097313
633	2719	345038917886986
643	2722	345038918701506
651	2711	345038919494673
658	2723	345038920280413
669	2738	345038921093320
680	2741	345038921883984
688	2746	345038922731053
700	2750	345038923553512
710	2736	345038924379445
720	2718	345038925202378
724	2732	345038926043157
718	2726	345038926871752
712	2722	345038927708417
715	2748	345038928519146
725	2772	345038929327400
724	2783	345038929912644
719	2790	345038930825485
716	2782	345038931705337
715	2757	345038932539461
713	2746	345038933357866
706	2726	345038934029771
699	2709	345038934866771
692	2702	345038935703745
688	2714	345038936548254
682	2710	345038937374871
677	2698	345038938191054
668	2700	345038939004976
666	2700	345038939842231
659	2699	345038940776659
650	2668	345038941697998
644	2645	345038942398335
641	2622	345038943208556
639	2615	345038944013341
647	2631	345038944853563
650	2645	345038945868120
655	2668	345038946539380
667	2694	345038947327510
681	2715	345038948118053
692	2734	345038948909163
691	2718	345038949724652
686	2716	345038950504967
687	2707	345038951330408
692	2766	345038952114606
693	2791	345038952745433
693	2795	345038953560536
714	2817	345038954332398
735	2852	345038954886754
736	2855	345038955707525
732	2830	345038956510052
729	2807	345038957237160
722	2787	345038958014421
724	2786	345038958823814
721	2793	345038959632031
714	2817	345038960394136
712	2834	345038961122727
707	2829	345038961934755
700	2836	345038962758911
694	2840	345038963591536
685	2814	345038964399738
680	2783	345038965229869
674	2756	345038966041508
679	2730	345038966850455
689	2715	345038967656504
689	2702	345038968441325
689	2698	345038969228984
687	2705	345038970034290
684	2712	345038971021232
680	2705	345038971846471
684	2693	345038972577560
690	2684	345038973365363
704	2674	345038974149993
722	2656	345038974959317
744	2631	345038975753487
761	2603	345038976588256
763	2574	345038977404252
762	2564	345038978221833
768	2576	345038979036907
765	2586	345038979877116
756	2600	345038980710794
748	2618	345038981539850
746	2615	345038982357480
752	2597	345038983170575
762	2569	345038983982972
779	2549	345038984963220
786	2544	345038985772258
794	2574	345038986628918
813	2620	345038987458066
829	2630	345038988267762
837	2621	345038989083256
845	2614	345038989889733
851	2592	345038990905153
842	2590	345038991760989
834	2580	345038992732262
831	2597	345038993552235
827	2600	345038994371601
825	2614	345038995202193
822	2633	345038996039604
819	2648	345038996772552
815	2655	345038997636263
810	2650	345038998449277
804	2629	345038999265325
795	2604	345039000079917
788	2591	345039001102098
786	2588	345039001929703
781	2592	345039002790336
775	2607	345039003634183
770	2618	345039004449564
763	2625	345039005160548
754	2630	345039006007644
747	2618	345039006852903
740	2597	345039007710958
734	2569	345039008528930
730	2558	345039009341595
725	2551	345039010170050
721	2555	345039011097056
720	2569	345039011909300
716	2581	345039012670057
717	2591	345039013462510
718	2598	345039014272824
715	2595	345039015100809
708	2575	345039016010444
702	2546	345039016850384
704	2530	345039017675324
702	2526	345039018487962
701	2533	345039019299588
700	2553	345039020129612
698	2579	345039020960973
697	2591	345039021806137
692	2597	345039022725653
688	2581	345039023538321
685	2556	345039024343333
680	2539	345039025143319
676	2532	345039026020758
668	2527	345039026867847
673	2521	345039027726057
680	2535	345039028537996
684	2553	345039029355068
689	2574	345039030178859
689	2557	345039031070597
684	2537	345039031879106
680	2513	345039032719911
680	2492	345039033531992
686	2490	345039034341959
691	2477	345039035167340
698	2474	345039036003143
703	2493	345039036837390
708	2506	345039037680913
713	2514	345039038493268
714	2520	345039039308640
714	2521	345039040143254
706	2503	345039041133290
707	2480	345039041929804
707	2464	345039042768024
708	2468	345039043611972
705	2493	345039044418199
706	2521	345039045231072
707	2549	345039046065611
703	2561	345039046889502
698	2555	345039047749453
689	2557	345039048564364
683	2549	345039049400908
676	2528	345039050185095
675	2519	345039051087249
673	2529	345039051900749
676	2552	345039052755585
678	2581	345039053567083
672	2597	345039054377157
666	2597	345039055177175
660	2603	345039056017378
652	2602	345039056859443
645	2579	345039057714664
637	2554	345039058522749
632	2531	345039059320642
629	2528	345039060151504
626	2538	345039061097849
618	2555	345039061868535
617	2586	345039062704757
610	2612	345039063522723
604	2624	345039064331062
597	2622	345039065171308
593	2595	345039066028488
589	2571	345039066871486
584	2550	345039067643591
578	2547	345039068432296
572	2559	345039069249712
568	2584	345039070075806
569	2625	345039071062104
571	2650	345039071877077
565	2661	345039072733806
558	2651	345039073548648
555	2626	345039074356498
551	2606	345039075150479
545	2587	345039076024455
542	2587	345039076866656
542	2602	345039077732151
546	2629	345039078539109
546	2654	345039079360118
544	2669	345039080182258
541	2674	345039081083164
536	2671	345039081685515
532	2656	345039082516592
529	2632	345039083280958
526	2624	345039084042416
525	2626	345039084890124
528	2632	345039085738605
535	2647	345039086574252
541	2667	345039087387304
544	2688	345039088166983
545	2699	345039088984149
547	2702	345039089662947
545	2691	345039090304597
542	2669	345039091145276
537	2647	345039091957535
531	2634	345039092656775
527	2627	345039093469560
525	2631	345039094297824
526	2649	345039095109082
531	2681	345039096029110
537	2704	345039096863615
539	2717	345039097707354
534	2716	345039098512488
528	2697	345039099323241
525	2671	345039100133896
526	2662	345039101191303
529	2663	345039102031023
534	2669	345039102802238
538	2683	345039103695152
537	2701	345039104504255
534	2710	345039105344076
529	2715	345039106188688
523	2704	345039106920310
520	2686	345039107744233
519	2661	345039108563363
517	2652	345039109373377
511	2638	345039110189745
507	2632	345039111123407
510	2636	345039111956476
516	2647	345039112798312
515	2657	345039113632791
511	2660	345039114462260
507	2652	345039115272453
505	2628	345039116101092
503	2599	345039116913128
504	2578	345039117662688
506	2574	345039118473478
510	2577	345039119300882
516	2594	345039120112460
522	2615	345039121074404
522	2628	345039121898256
518	2637	345039122740879
513	2628	345039123556569
509	2610	345039124383750
506	2584	345039125202466
504	2568	345039126037930
504	2564	345039126895449
509	2576	345039127739259
512	2603	345039128560589
513	2631	345039129374734
507	2639	345039130193980
502	2647	345039131089324
498	2640	345039131922054
492	2614	345039132756578
488	2586	345039133561905
493	2576	345039134369796
497	2577	345039135182158
502	2587	345039136024465
506	2607	345039136858654
508	2627	345039137662107
511	2640	345039138474201
512	2647	345039139301078
506	2650	345039140115545
510	2627	345039140948677
517	2615	345039141796219
523	2608	345039142419285
526	2608	345039143229562
530	2621	345039144058296
531	2640	345039144890842
533	2664	345039145662554
531	2680	345039146485635
526	2665	345039147306908
519	2648	345039148117804
517	2638	345039148915297
510	2612	345039149751579
507	2589	345039150566972
504	2587	345039151421398
509	2592	345039152244875
516	2607	345039153059030
526	2636	345039153916525
535	2659	345039154764432
538	2666	345039155579069
534	2655	345039156394486
528	2636	345039157163945
524	2611	345039157979707
517	2590	345039158833065
512	2579	345039159673234
510	2572	345039160487504
507	2556	345039161175153
505	2571	345039162001386
506	2615	345039162852841
507	2651	345039163717392
503	2669	345039164532130
502	2666	345039165304805
510	2653	345039166163837
513	2641	345039166982068
508	2617	345039167825460
502	2616	345039168689615
501	2623	345039169436019
503	2636	345039170253890
507	2660	345039171089313
507	2681	345039171904972
500	2690	345039172749554
497	2685	345039173585873
498	2664	345039174224699
501	2640	345039175021148
506	2617	345039175985767
512	2608	345039176836802
518	2616	345039177675002
521	2638	345039178500085
526	2667	345039179305817
524	2687	345039179924631
521	2700	345039180853916
516	2699	345039181663781
512	2677	345039182474314
510	2659	345039183238898
508	2654	345039184047552
504	2653	345039184886962
506	2649	345039185748980
509	2656	345039186583247
511	2665	345039187398067
515	2677	345039188177371
515	2686	345039188986776
513	2689	345039189662454
511	2685	345039190302948
505	2671	345039191149065
501	2642	345039191967320
498	2625	345039192804889
494	2628	345039193649424
494	2633	345039194431269
488	2647	345039195260830
491	2672	345039196098165
491	2692	345039196798028
487	2699	345039197669705
483	2705	345039198485265
478	2694	345039199301748
473	2670	345039200117609
478	2651	345039201123236
484	2655	345039201924486
488	2669	345039202789152
484	2695	345039203633734
479	2716	345039204452235
476	2726	345039205181208
478	2730	345039206037885
480	2724	345039206876222
478	2705	345039207730377
472	2675	345039208541426
466	2658	345039209366308
462	2642	345039210203052
457	2644	345039211062470
453	2669	345039211907383
457	2695	345039212669406
456	2704	345039213480728
451	2715	345039214291540
449	2719	345039215122167
450	2702	345039216035810
452	2670	345039216972936
448	2653	345039217657912
446	2654	345039218305135
444	2662	345039219128800
451	2682	345039219968385
456	2717	345039221057901
464	2738	345039221913116
474	2749	345039222773699
482	2740	345039223556082
481	2718	345039224376624
476	2690	345039225209078
474	2673	345039226044545
474	2673	345039226894536
476	2688	345039227730924
479	2716	345039228544158
478	2745	345039229371274
472	2769	345039230212059
466	2777	345039231092137
462	2770	345039231912759
458	2738	345039232751123
456	2720	345039233561460
455	2707	345039234364585
451	2702	345039235192698
454	2711	345039236034239
455	2737	345039236876069
453	2766	345039237767055
453	2783	345039238585643
457	2792	345039239401871
462	2796	345039240237936
460	2772	345039241089372
462	2751	345039241910563
470	2743	345039242751472
478	2742	345039243567409
478	2754	345039244382209
476	2777	345039245189349
473	2799	345039246046514
468	2819	345039246892607
462	2823	345039247746446
464	2818	345039248551049
460	2803	345039249365133
455	2777	345039250173782
452	2751	345039251096848
452	2750	345039251908447
456	2766	345039252762457
459	2796	345039253572516
462	2835	345039254378549
468	2861	345039255184040
470	2870	345039256042033
468	2866	345039256884572
467	2843	345039257739738
467	2818	345039258547968
462	2804	345039259360843
458	2799	345039260189751
455	2812	345039261035130
451	2833	345039261889373
446	2861	345039262728240
446	2878	345039263524469
453	2881	345039264340287
449	2878	345039265167333
448	2853	345039266052260
446	2828	345039266908511
443	2815	345039267745821
447	2812	345039268561661
447	2819	345039269382769
441	2838	345039270218936
444	2860	345039271106796
444	2875	345039271928233
439	2880	345039272921930
436	2866	345039273568224
435	2845	345039274384776
429	2822	345039275193678
427	2811	345039276050995
423	2808	345039276892274
419	2819	345039277660961
420	2836	345039278472189
422	2856	345039279281789
420	2867	345039280087535
422	2865	345039281094267
421	2853	345039281914829
416	2825	345039282769858
417	2800	345039283578474
418	2779	345039284510196
419	2769	345039285346481
420	2770	345039286062475
419	2784	345039286910387
415	2811	345039287744243
411	2831	345039288553136
411	2840	345039289372957
410	2836	345039290213894
407	2818	345039291111032
404	2789	345039291929771
401	2768	345039292770920
396	2758	345039293590348
392	2767	345039294408646
391	2790	345039295229279
389	2817	345039296072273
383	2839	345039296918244
381	2849	345039297663097
378	2848	345039298482079
381	2828	345039299299049
390	2797	345039300106336
407	2775	345039300933241
411	2769	345039301785364
412	2770	345039302647044
413	2792	345039303463491
416	2815	345039304275680
418	2836	345039305085878
415	2852	345039306042405
416	2855	345039306888139
417	2837	345039307742258
421	2809	345039308552258
436	2796	345039309303375
465	2792	345039310143739
497	2804	345039311063914
515	2824	345039311906998
520	2849	345039312743751
519	2867	345039313559808
515	2870	345039314373988
521	2866	345039315206287
532	2843	345039316042722
539	2814	345039316878408
544	2802	345039317789362
547	2803	345039318582103
551	2813	345039319395026
563	2838	345039320230865
576	2861	345039321121548
584	2874	345039321920800
590	2878	345039322788344
599	2867	345039323565523
603	2842	345039324381030
600	2816	345039325143227
599	2800	345039326055511
604	2793	345039326995546
606	2805	345039327820148
610	2821	345039328790117
616	2845	345039329698951
623	2852	345039330527659
622	2850	345039331362362
615	2838	345039332200353
611	2810	345039333039093
615	2782	345039333890605
621	2770	345039334742203
628	2769	345039335549657
642	2780	345039336389887
655	2804	345039337211485
669	2826	345039338048826
675	2838	345039338895449
676	2838	345039339740454
673	2821	345039340568367
683	2790	345039341397965
703	2775	345039342221711
734	2764	345039343052963
767	2762	345039343898925
793	2771	345039344747442
810	2791	345039345584527
814	2813	345039346421333
810	2824	345039347239861
804	2822	345039348042888
809	2810	345039348877277
823	2782	345039349662505
846	2758	345039350492217
871	2744	345039351338603
895	2744	345039352156712
915	2754	345039352820497
926	2772	345039353660259
925	2797	345039354469954
921	2813	345039355269497
923	2823	345039356100932
922	2821	345039356919173
924	2797	345039357663203
925	2776	345039358474688
922	2763	345039359069923
919	2758	345039359923725
916	2765	345039360851064
915	2783	345039361732436
909	2810	345039362542398
898	2825	345039363195273
895	2829	345039364009679
897	2825	345039364867484
904	2805	345039365688299
913	2777	345039366526682
921	2757	345039367319357
924	2750	345039368138278
915	2749	345039368958476
909	2761	345039369662329
904	2781	345039370483087
904	2807	345039371324742
908	2821	345039372130369
911	2829	345039372950852
910	2820	345039373823312
907	2790	345039374674477
897	2770	345039375481385
886	2758	345039376312933
877	2758	345039377146714
871	2773	345039377828548
866	2789	345039378666251
857	2813	345039379471927
848	2829	345039380258087
839	2834	345039381112474
829	2832	345039381945532
825	2812	345039382789116
823	2785	345039383600752
820	2771	345039384403301
817	2763	345039385235451
816	2763	345039386066242
818	2782	345039386910552
817	2805	345039387772648
813	2826	345039388436963
807	2836	345039389278414
806	2832	345039390095370
824	2814	345039391106639
835	2783	345039391981381
850	2763	345039392797357
865	2752	345039393606116
878	2754	345039394436027
885	2767	345039395244646
883	2783	345039396071559
875	2796	345039396819070
872	2799	345039397654157
880	2796	345039398462968
895	2773	345039399290600
916	2746	345039400105408
943	2728	345039401146215
958	2726	345039401986638
974	2734	345039402828180
991	2750	345039403671189
1005	2763	345039404482759
1011	2768	345039405275469
1007	2761	345039406120462
999	2741	345039406953425
996	2710	345039407842726
1003	2693	345039408689774
1008	2686	345039409500109
1011	2688	345039410317466
1014	2703	345039411075901
1018	2724	345039411930049
1018	2746	345039412760787
1013	2761	345039413579214
1008	2763	345039414413363
1002	2755	345039415229950
994	2727	345039416066947
985	2714	345039416906516
976	2713	345039417745513
970	2717	345039418556704
967	2728	345039419387637
960	2748	345039420197969
952	2773	345039421085708
953	2788	345039421924382
959	2793	345039422765122
957	2787	345039423572109
953	2761	345039424391919
945	2740	345039425202162
935	2728	345039426059937
923	2724	345039426918911
915	2734	345039427758543
908	2755	345039428569524
906	2779	345039429333698
906	2795	345039430152246
915	2802	345039431106577
922	2796	345039431945901
930	2772	345039432789897
934	2746	345039433609960
937	2737	345039434453551
944	2740	345039435269498
948	2758	345039436085478
952	2785	345039436846382
955	2805	345039437692681
951	2821	345039438505884
939	2823	345039439317952
933	2811	345039440139881
932	2774	345039441209002
936	2751	345039442026748
945	2732	345039442873795
953	2723	345039443687850
970	2730	345039444457327
986	2747	345039445268361
993	2767	345039446096221
992	2787	345039446928069
989	2795	345039447767962
983	2792	345039448579171
973	2768	345039449407174
967	2745	345039450222663
972	2743	345039451126439
985	2749	345039451959649
1000	2759	345039452718073
1015	2774	345039453526090
1030	2786	345039454331805
1043	2800	345039455139651
1055	2804	345039456060944
1061	2794	345039456924121
1064	2765	345039457820452
1056	2742	345039458718044
1044	2730	345039459523363
1037	2735	345039460333401
1037	2752	345039461076592
1040	2777	345039461933844
1048	2804	345039462771389
1057	2814	345039463577610
1057	2815	345039464408148
1051	2805	345039465220671
1048	2778	345039466058816
1050	2756	345039466897089
1058	2745	345039467737265
1062	2745	345039468551265
1067	2758	345039469385963
1078	2786	345039470204427
1077	2814	345039471123468
1068	2836	345039471934633
1056	2845	345039472785744
1048	2836	345039473603543
1043	2811	345039474439464
1041	2783	345039475258025
1045	2766	345039476059427
1052	2755	345039476921607
1056	2764	345039477662686
1059	2784	345039478457886
1067	2813	345039479268099
1077	2836	345039479861550
1084	2845	345039480780578
1101	2845	345039481669770
1108	2828	345039482486002
1104	2799	345039483302694
1100	2777	345039483968194
1095	2767	345039484807755
1086	2765	345039485658061
1074	2781	345039486506967
1064	2807	345039487318442
1054	2825	345039488126385
1041	2837	345039488952069
1030	2837	345039489670954
1022	2824	345039490482549
1012	2794	345039491335684
1008	2777	345039492150205
1010	2766	345039492799914
1016	2764	345039493599879
1024	2769	345039494406830
1032	2786	345039495212272
1039	2807	345039496060089
1045	2823	345039497006758
1043	2819	345039497662037
1036	2812	345039498463221
1031	2789	345039499277411
1034	2763	345039500096230
1039	2741	345039500959381
1043	2741	345039501817382
1054	2749	345039502709623
1064	2773	345039503538912
1072	2795	345039504278553
1072	2809	345039504861322
1070	2815	345039505664394
1062	2810	345039506497523
1054	2791	345039507308753
1044	2762	345039508111811
1032	2743	345039508934626
1022	2731	345039509776009
1014	2733	345039510601610
1008	2745	345039511436720
1013	2770	345039512247762
1027	2793	345039513054675
1035	2808	345039513907436
1041	2805	345039514753486
1039	2788	345039515583810
1035	2758	345039516422686
1035	2738	345039517246074
1033	2733	345039518007117
1034	2735	345039518853186
1032	2748	345039519710557
1022	2773	345039520543482
1019	2794	345039521389468
1016	2807	345039522198976
1012	2811	345039523011922
1003	2802	345039523851696
992	2776	345039524683267
987	2751	345039525519505
989	2734	345039526353626
986	2735	345039527170813
981	2754	345039527978035
977	2779	345039528819321
972	2800	345039529661994
974	2813	345039530496851
983	2811	345039531319912
989	2796	345039531962270
994	2770	345039532812965
988	2744	345039533657330
977	2727	345039534474420
969	2723	345039535286739
962	2732	345039536097022
953	2751	345039536945181
941	2769	345039537661405
943	2781	345039538254437
952	2788	345039539074387
961	2786	345039539910136
962	2772	345039540743114
957	2747	345039541575301
947	2724	345039542339734
939	2713	345039543150183
931	2718	345039543961861
924	2743	345039544791617
915	2776	345039545607216
911	2807	345039546440380
909	2824	345039547266294
910	2825	345039548076562
913	2803	345039548838423
916	2783	345039549692644
918	2767	345039550503406
915	2760	345039551337776
908	2753	345039552144344
905	2759	345039553058439
905	2778	345039553913372
898	2797	345039554772607
893	2818	345039555588051
890	2831	345039556428022
889	2826	345039557189757
882	2802	345039558010189
871	2783	345039558838344
869	2770	345039559752059
877	2766	345039560567736
882	2778	345039561397093
882	2797	345039562146458
874	2817	345039563000104
864	2833	345039563842116
855	2835	345039564670928
851	2825	345039565479303
845	2800	345039566308839
845	2772	345039567141636
845	2754	345039567943796
844	2746	345039568777855
845	2750	345039569472365
844	2765	345039570289747
839	2783	345039571140998
830	2792	345039571975282
821	2790	345039572823220
811	2778	345039573592464
811	2755	345039574426517
836	2728	345039575248000
868	2714	345039576087844
894	2708	345039576938716
904	2703	345039577719837
910	2700	345039578536288
907	2698	345039579345681
898	2697	345039580161581
896	2693	345039581126926
903	2686	345039581966100
912	2663	345039582812716
927	2638	345039583630336
942	2619	345039584458197
953	2616	345039585272843
958	2627	345039586097357
962	2657	345039586941092
968	2683	345039587780396
970	2698	345039588589871
964	2701	345039589396983
954	2686	345039590183967
953	2657	345039591134327
953	2637	345039591948073
953	2627	345039592593019
953	2627	345039593281170
954	2637	345039594112749
955	2668	345039595088848
959	2702	345039596073057
959	2725	345039596913468
964	2733	345039597755083
967	2722	345039598560430
958	2695	345039599388051
953	2676	345039600197824
947	2666	345039601253989
939	2668	345039602088515
929	2686	345039602721880
928	2707	345039603528123
933	2739	345039604329259
944	2767	345039605141553
961	2780	345039606073437
972	2772	345039606933664
977	2745	345039607764804
975	2726	345039608572956
969	2717	345039609388322
958	2717	345039610207268
952	2728	345039611097305
952	2752	345039611955787
956	2780	345039612802605
960	2798	345039613616024
959	2805	345039614451239
954	2803	345039615216597
944	2781	345039616090931
945	2756	345039616929598
945	2742	345039617661735
943	2740	345039618479185
941	2747	345039619307029
934	2769	345039620116106
924	2802	345039621131965
926	2818	345039621971149
927	2824	345039622808139
922	2816	345039623596053
925	2794	345039624382584
926	2771	345039625196012
922	2756	345039626095944
912	2752	345039626949357
904	2766	345039627723952
899	2784	345039628531087
895	2800	345039629344824
887	2807	345039630166304
877	2803	345039631124043
869	2794	345039631960047
867	2767	345039632784534
872	2742	345039633593104
881	2725	345039634406535
892	2718	345039635220663
900	2721	345039636090608
896	2738	345039636946751
886	2759	345039637663962
878	2772	345039638257529
875	2780	345039639086644
864	2784	345039639917299
855	2771	345039640747436
850	2742	345039641573848
843	2726	345039642348094
834	2718	345039643159781
827	2722	345039643991021
821	2733	345039644806778
817	2755	345039645615841
810	2774	345039646447578
801	2783	345039647257826
792	2789	345039648066348
791	2777	345039648842462
797	2752	345039649731429
812	2725	345039650545002
822	2712	345039651400668
827	2710	345039652216431
826	2720	345039653034947
825	2747	345039653894214
817	2769	345039654724568
814	2783	345039655527137
818	2787	345039656349870
819	2776	345039657157876
817	2747	345039657971221
815	2724	345039658828118
825	2712	345039659635468
837	2710	345039660450308
850	2721	345039661163623
861	2736	345039661976561
862	2756	345039662822640
858	2767	345039663672930
851	2771	345039664479246
847	2766	345039665288124
849	2742	345039666053167
858	2719	345039666902150
869	2710	345039667745947
886	2712	345039668576799
903	2720	345039669397414
911	2742	345039670214918
913	2763	345039671127860
911	2774	345039672249777
904	2769	345039673083811
894	2752	345039673961894
884	2723	345039674811424
880	2706	345039675622700
881	2692	345039676483533
884	2691	345039677300390
892	2703	345039678130972
902	2722	345039678961179
906	2744	345039679810423
905	2754	345039680620985
904	2757	345039681452986
903	2745	345039682109932
907	2723	345039682944178
905	2698	345039683800427
898	2692	345039684738368
891	2699	345039685553097
890	2717	345039686378070
891	2745	345039687189482
896	2770	345039688000686
901	2788	345039688761562
908	2790	345039689577039
918	2778	345039690233873
922	2754	345039691148390
925	2733	345039691966003
919	2719	345039692846900
911	2718	345039693661483
903	2733	345039694389274
896	2752	345039695196276
893	2780	345039696106118
899	2799	345039696735954
902	2805	345039697547940
899	2799	345039698353425
892	2776	345039699166814
894	2748	345039699982188
890	2731	345039700919991
877	2725	345039701661943
871	2727	345039702475956
866	2744	345039703284976
863	2769	345039704096493
857	2785	345039704867225
850	2793	345039705725237
839	2789	345039706559819
830	2773	345039707371501
824	2742	345039708204842
819	2722	345039708985162
816	2712	345039709833399
806	2712	345039710641681
801	2724	345039711493463
799	2744	345039712308886
793	2765	345039713108160
784	2770	345039713958806
774	2771	345039714806276
766	2755	345039715613302
765	2726	345039716454091
770	2703	345039717275177
774	2691	345039718107385
780	2688	345039718955026
786	2697	345039719800167
789	2718	345039720632673
790	2743	345039721487784
786	2757	345039722141706
782	2759	345039722963083
775	2750	345039723610818
768	2733	345039724419007
760	2704	345039725249761
756	2685	345039726103198
764	2683	345039726947055
776	2692	345039727738103
789	2710	345039728547186
795	2733	345039729367075
792	2752	345039730115028
783	2758	345039731133309
775	2755	345039731861849
770	2737	345039732710438
767	2708	345039733525870
770	2693	345039734336915
774	2689	345039735173320
779	2698	345039736087855
783	2722	345039736924664
785	2746	345039737770651
779	2766	345039738553285
780	2773	345039739365164
796	2762	345039740198215
821	2737	345039741151343
844	2709	345039741973594
868	2690	345039742818802
881	2681	345039743632169
883	2688	345039744362308
881	2705	345039745125729
871	2725	345039746069448
869	2738	345039746913869
875	2740	345039747773878
888	2730	345039748584145
907	2702	345039749400374
933	2681	345039750207199
966	2665	345039751151885
997	2662	345039751975585
1028	2667	345039752749863
1045	2685	345039753566595
1056	2707	345039754388425
1050	2722	345039755183873
1041	2729	345039756099678
1032	2721	345039756864385
1024	2701	345039757662586
1027	2674	345039758479408
1035	2657	345039759285282
1051	2654	345039760133649
1070	2667	345039760969933
1083	2682	345039761829832
1097	2708	345039762625769
1106	2733	345039763442390
1110	2747	345039764255432
1104	2752	345039765089469
1090	2735	345039765999179
1085	2710	345039766842501
1085	2699	345039767645650
1086	2699	345039768453081
1088	2718	345039769270269
1103	2754	345039770088990
1131	2797	345039771117217
1145	2816	345039771958857
1147	2821	345039772851768
1137	2812	345039773589721
1128	2789	345039774407409
1124	2764	345039775223177
1120	2751	345039776114333
1123	2749	345039776948418
1133	2759	345039777740597
1143	2779	345039778556114
1146	2801	345039779368538
1146	2814	345039780173594
1139	2813	345039781148289
1135	2804	345039781866579
1133	2781	345039782721313
1120	2754	345039783532628
1119	2741	345039784291435
1127	2738	345039785122086
1132	2745	345039786049451
1142	2764	345039786898337
1148	2784	345039787722271
1157	2797	345039788537970
1160	2800	345039789344890
1153	2791	345039790177283
1139	2763	345039791145148
1127	2736	345039791975872
1121	2719	345039792616520
1112	2717	345039793432873
1101	2725	345039794250205
1094	2748	345039795080117
1095	2781	345039796054524
1089	2797	345039796909589
1085	2802	345039797773694
1074	2792	345039798603124
1065	2763	345039799425125
1055	2743	345039800234292
1049	2731	345039801199974
1051	2730	345039802020306
1056	2742	345039802743311
1060	2763	345039803556119
1067	2784	345039804368711
1072	2798	345039805179106
1078	2802	345039806105133
1080	2788	345039806866628
1084	2766	345039807722746
1078	2740	345039808533387
1069	2727	345039809350896
1063	2726	345039810184937
1059	2740	345039811120265
1053	2760	345039811966586
1053	2781	345039812810471
1052	2793	345039813630829
1047	2796	345039814442111
1037	2791	345039815248368
1027	2767	345039816111895
1023	2738	345039816953084
1032	2721	345039817786615
1039	2716	345039818548055
1037	2723	345039819354725
1027	2751	345039820179286
1017	2794	345039821145876
1016	2821	345039821971967
1018	2833	345039822845739
1019	2823	345039823621598
1017	2797	345039824436342
1016	2774	345039825198438
1010	2764	345039826119314
1006	2764	345039827037547
1006	2780	345039827745656
1007	2799	345039828524566
1011	2821	345039829345470
1006	2843	345039830163937
995	2848	345039831159345
992	2836	345039831873194
990	2811	345039832843090
989	2781	345039833673033
986	2772	345039834459308
979	2769	345039835292270
969	2779	345039836124684
960	2800	345039836974335
952	2822	345039837812625
948	2837	345039838621929
942	2843	345039839432371
939	2832	345039840263878
945	2805	345039841168373
950	2781	345039841971698
946	2769	345039842749501
941	2768	345039843535333
938	2779	345039844354492
929	2800	345039845182980
920	2823	345039846107205
918	2833	345039846956249
918	2833	345039847662750
927	2826	345039848463106
946	2800	345039849283258
963	2774	345039850042744
983	2759	345039850953485
999	2751	345039851827670
1008	2754	345039852656852
1009	2773	345039853474229
1000	2797	345039854288748
996	2814	345039854913951
999	2819	345039855754431
1003	2813	345039856586800
1006	2794	345039857263312
1005	2768	345039858075428
1000	2750	345039858919667
993	2740	345039859772556
985	2738	345039860582747
978	2748	345039861398141
974	2765	345039862213800
968	2784	345039863022126
960	2792	345039863876268
949	2795	345039864639451
940	2783	345039865223463
935	2760	345039866125884
925	2735	345039866986762
916	2719	345039867838499
906	2716	345039868654141
903	2724	345039869379331
904	2745	345039870202970
914	2771	345039871152901
926	2788	345039871988058
930	2792	345039872814550
931	2782	345039873500529
931	2760	345039874333919
929	2735	345039875143989
917	2721	345039876101723
912	2721	345039876964307
909	2734	345039877664518
910	2753	345039878480664
925	2778	345039879292424
950	2798	345039880102013
970	2804	345039880937184
974	2795	345039881807641
973	2770	345039882619313
962	2748	345039883437660
961	2741	345039884260854
970	2745	345039885076893
992	2759	345039885929747
1017	2785	345039886812709
1037	2805	345039887628690
1051	2816	345039888448947
1064	2816	345039889300878
1077	2804	345039890127398
1067	2770	345039891149774
1059	2748	345039892043392
1056	2738	345039892887428
1058	2741	345039893661817
1063	2757	345039894376108
1067	2776	345039895186055
1067	2802	345039896112700
1065	2810	345039896752112
1057	2809	345039897563654
1048	2797	345039898378759
1041	2770	345039899207926
1039	2741	345039900023101
1039	2721	345039900936891
1039	2714	345039901663372
1040	2718	345039902477539
1041	2736	345039903289766
1037	2758	345039904097131
1029	2776	345039904789455
1036	2784	345039905614667
1053	2783	345039906474669
1075	2766	345039907287169
1089	2738	345039908098675
1089	2715	345039908933610
1083	2703	345039909662377
1072	2702	345039910478981
1060	2718	345039911362073
1055	2741	345039912138699
1050	2764	345039912971797
1042	2780	345039913828000
1036	2782	345039914636796
1042	2772	345039915307964
1057	2748	345039916157735
1081	2725	345039916953813
1103	2712	345039917660581
1121	2711	345039918468486
1131	2719	345039919285181
1123	2740	345039920066807
1115	2768	345039920918051
1120	2779	345039921566739
1121	2785	345039922377061
1120	2780	345039923186527
1122	2766	345039923997670
1126	2734	345039924848628
1127	2718	345039925663415
1131	2707	345039926511844
1137	2708	345039927326116
1134	2724	345039928136579
1126	2747	345039928966319
1126	2771	345039929810853
1130	2781	345039930640008
1131	2780	345039931485631
1138	2764	345039932302294
1150	2736	345039933135077
1155	2712	345039933969302
1147	2702	345039934812430
1137	2702	345039935617179
1128	2718	345039936448437
1125	2744	345039937263418
1118	2766	345039938102450
1106	2780	345039938941072
1094	2784	345039939777536
1089	2776	345039940582758
1086	2753	345039941398140
1079	2728	345039942183578
1073	2713	345039943016873
1070	2714	345039943853072
1071	2732	345039944635450
1066	2755	345039945478055
1064	2782	345039946310971
1063	2799	345039947130355
1069	2802	345039947962994
1072	2791	345039948862303
1069	2764	345039949707469
1057	2738	345039950535486
1048	2728	345039951369838
1041	2731	345039952181519
1044	2744	345039953006986
1057	2770	345039953669283
1075	2786	345039954481276
1097	2801	345039955309033
1125	2808	345039956132777
1147	2798	345039956886946
1159	2773	345039957736622
1174	2750	345039958555153
1188	2736	345039959363610
1181	2731	345039960189034
1197	2745	345039961008328
1226	2763	345039961663404
1259	2781	345039962475874
1294	2799	345039963134437
1317	2807	345039963972059
1335	2806	345039964841557
1341	2784	345039965654795
1336	2758	345039966499152
1322	2741	345039967262874
1316	2735	345039968076048
1314	2736	345039968920568
1316	2748	345039969660694
1322	2768	345039970344038
1325	2781	345039971223758
1324	2795	345039972038305
1318	2798	345039972885231
1311	2787	345039973514005
1305	2766	345039974334745
1308	2740	345039975146909
1297	2720	345039976075614
1285	2711	345039976907137
1284	2720	345039977714122
1290	2737	345039978493950
1293	2757	345039979272325
1289	2774	345039980050366
1282	2785	345039981045745
1269	2784	345039981878401
1262	2765	345039982688905
1249	2735	345039983467692
1236	2717	345039984241129
1221	2711	345039985430420
1209	2728	345039986238354
1197	2755	345039987041764
1191	2779	345039987849544
1183	2799	345039988668405
1182	2808	345039989507989
1179	2800	345039990257458
1181	2775	345039991187419
1186	2751	345039991999450
1192	2736	345039992851154
1197	2732	345039993663783
1207	2741	345039994385701
1215	2755	345039995204423
1214	2778	345039996130866
1203	2792	345039996979929
1212	2799	345039997877684
1225	2791	345039998514876
1237	2774	345039999340467
1242	2746	345040000150566
1254	2723	345040001325683
1269	2720	345040002166496
1289	2728	345040003015612
1310	2748	345040003866172
1322	2767	345040004673338
1325	2780	345040005496420
1319	2784	345040006339003
1304	2775	345040007173288
1298	2752	345040007995754
1300	2727	345040008828789
1302	2713	345040009655987
1304	2714	345040010478924
1301	2724	345040011324423
1302	2742	345040012160904
1301	2764	345040012995075
1299	2777	345040013842610
1303	2781	345040014652166
1304	2771	345040015271013
1302	2750	345040016140540
1297	2723	345040017000787
1286	2707	345040017843137
1272	2701	345040018649508
1260	2707	345040019541579
1248	2722	345040020346797
1241	2742	345040021183918
1241	2756	345040021986609
1243	2760	345040022812470
1244	2756	345040023516903
1247	2744	345040024343389
1266	2719	345040025152441
1284	2694	345040026119669
1276	2691	345040026984210
1270	2705	345040027766347
1269	2724	345040028497056
1263	2744	345040029258231
1257	2762	345040030069009
1247	2769	345040030982054
1238	2761	345040031865133
1231	2736	345040032674431
1220	2710	345040033489449
1213	2695	345040034296252
1212	2686	345040035104590
1213	2691	345040036018525
1206	2710	345040036876352
1198	2729	345040037802258
1186	2741	345040038561791
1173	2744	345040039393451
1162	2738	345040040206738
1153	2713	345040041052816
1145	2687	345040041926495
1143	2671	345040042740681
1143	2662	345040043555090
1146	2669	345040044370055
1157	2685	345040045193905
1166	2709	345040046125356
1173	2726	345040046962199
1174	2731	345040047800154
1168	2725	345040048518850
1159	2702	345040049351531
1157	2677	345040050168146
1166	2657	345040051173297
1182	2652	345040052008110
1205	2655	345040052772874
1224	2669	345040053585867
1247	2682	345040054358312
1255	2694	345040055165927
1247	2706	345040056119087
1233	2702	345040056892005
1230	2688	345040057663120
1231	2663	345040058476145
1231	2640	345040059286489
1226	2627	345040060102091
1223	2632	345040060934363
1227	2644	345040061853858
1229	2668	345040062644988
1222	2684	345040063440673
1215	2692	345040064269654
1207	2689	345040065077077
1197	2672	345040065918642
1183	2642	345040066798763
1170	2621	345040067607257
1160	2609	345040068420464
1153	2612	345040069252535
1149	2625	345040070065804
1148	2645	345040070970393
1144	2659	345040071828695
1138	2666	345040072613954
1136	2663	345040073402620
1136	2647	345040074225216
1133	2621	345040075037461
1122	2600	345040075867751
1111	2585	345040076689388
1101	2583	345040077492049
1102	2593	345040078278539
1108	2606	345040079053817
1108	2622	345040079744817
1106	2631	345040080521754
1100	2636	345040081359484
1087	2628	345040082147794
1078	2605	345040082958929
1065	2579	345040083769428
1054	2565	345040084518337
1047	2559	345040085306547
1036	2565	345040085992651
1028	2578	345040086812005
1020	2596	345040087593601
1011	2610	345040088385888
1000	2618	345040089171289
990	2616	345040089971050
978	2598	345040090900445
969	2569	345040091814218
957	2546	345040092516779
951	2535	345040093362444
944	2537	345040094178070
932	2556	345040095119568
933	2582	345040096092832
942	2595	345040096947932
945	2601	345040097792589
935	2590	345040098522764
928	2569	345040099348253
917	2542	345040100161444
909	2520	345040101306320
910	2518	345040102135229
920	2526	345040102971091
932	2546	345040103828383
939	2561	345040104642177
944	2573	345040105463437
948	2577	345040106314552
955	2568	345040106902952
960	2550	345040107739417
959	2526	345040108556335
953	2515	345040109207558
945	2511	345040110024578
942	2515	345040110940238
949	2527	345040111807132
959	2541	345040112619878
968	2552	345040113458882
978	2554	345040114277735
981	2551	345040115091935
972	2531	345040116052014
963	2502	345040116860073
955	2484	345040117646097
952	2478	345040118450769
953	2479	345040119230276
954	2492	345040120010356
960	2513	345040121057053
961	2529	345040121890417
958	2537	345040122732375
953	2532	345040123565665
943	2515	345040124378645
937	2488	345040125201514
936	2464	345040126129338
938	2457	345040127003557
943	2466	345040127707135
957	2478	345040128543444
977	2494	345040129371463
992	2504	345040130186476
997	2511	345040131186910
990	2506	345040131897954
984	2489	345040132731275
984	2462	345040133541272
993	2446	345040134343922
1007	2439	345040135160434
1032	2441	345040136036775
1056	2453	345040136889131
1092	2467	345040137734534
1117	2477	345040138544747
1120	2484	345040139358503
1110	2476	345040140156192
1109	2454	345040141185967
1116	2425	345040142081815
1129	2406	345040142927314
1139	2398	345040143790184
1143	2405	345040144413614
1155	2419	345040145226071
1166	2441	345040146143099
1178	2455	345040146984237
1191	2458	345040147875385
1195	2451	345040148534047
1190	2436	345040149355952
1182	2411	345040150168808
1187	2391	345040151185428
1199	2386	345040152018237
1211	2390	345040152659779
1227	2401	345040153489865
1257	2419	345040154306439
1296	2436	345040155118979
1324	2449	345040156105415
1322	2448	345040156909703
1312	2432	345040157753221
1315	2409	345040158558126
1323	2394	345040159363246
1343	2389	345040160175048
1373	2397	345040161031848
1386	2407	345040161662804
1393	2420	345040162475758
1395	2434	345040163160991
1390	2441	345040163999882
1377	2442	345040164833390
1371	2430	345040165666171
1369	2405	345040166498008
1366	2381	345040167282614
1367	2365	345040168090187
1379	2355	345040169043975
1403	2365	345040169919572
1416	2382	345040170858799
1407	2401	345040171698966
1393	2412	345040172514193
1388	2414	345040173275613
1392	2407	345040174096599
1400	2384	345040174942633
1405	2362	345040175660490
1401	2349	345040176500720
1400	2347	345040177322300
1403	2361	345040178164150
1400	2379	345040179011755
1387	2399	345040179785913
1379	2409	345040180611732
1379	2413	345040181454785
1383	2403	345040182269902
1394	2379	345040183103276
1397	2358	345040183909338
1395	2349	345040184751712
1385	2347	345040185637205
1371	2354	345040186464833
1363	2364	345040187275426
1355	2372	345040188106020
1340	2381	345040188951018
1325	2384	345040189790626
1312	2382	345040190597415
1299	2369	345040191432278
1285	2345	345040192244236
1276	2331	345040193064976
1272	2330	345040193913264
1268	2340	345040194820279
1273	2361	345040195658009
1277	2377	345040196409773
1284	2383	345040197233849
1293	2383	345040198070202
1299	2372	345040198911383
1292	2348	345040199746100
1279	2327	345040200572744
1264	2314	345040201396963
1258	2315	345040202191185
1268	2322	345040203012462
1283	2335	345040203867656
1300	2346	345040204677560
1315	2354	345040205501767
1328	2355	345040206331392
1330	2351	345040206922108
1323	2337	345040207774645
1324	2314	345040208588833
1330	2297	345040209393743
1338	2289	345040210157554
1348	2300	345040211035985
1357	2310	345040211877352
1360	2323	345040212739378
1349	2337	345040213552830
1345	2341	345040214369224
1357	2340	345040215162671
1379	2319	345040216133225
1393	2292	345040216986379
1398	2275	345040217665143
1398	2270	345040218480999
1398	2270	345040219298620
1396	2284	345040220123231
1390	2304	345040221148699
1375	2316	345040222000017
1365	2322	345040222868148
1358	2315	345040223538704
1357	2302	345040224354399
1355	2278	345040225115180
1356	2257	345040226092112
1357	2245	345040226936661
1363	2248	345040227665346
1368	2262	345040228471757
1368	2283	345040229286222
1363	2301	345040230108617
1359	2310	345040231015528
1346	2311	345040231877169
1333	2295	345040232638039
1319	2273	345040233450627
1309	2258	345040234260695
1301	2252	345040235090644
1297	2257	345040235932027
1302	2272	345040236842294
1313	2291	345040237652068
1311	2308	345040238471859
1308	2321	345040239283918
1301	2323	345040240122757
1284	2307	345040240955289
1273	2288	345040241806780
1263	2271	345040242610682
1250	2259	345040243423287
1238	2264	345040244225495
1231	2281	345040245054637
1228	2301	345040245893511
1229	2321	345040246746672
1230	2334	345040247575827
1222	2337	345040248388021
1209	2325	345040249201869
1206	2300	345040250019146
1205	2282	345040250921682
1202	2275	345040251791701
1199	2283	345040252614953
1199	2302	345040253400137
1192	2325	345040254215402
1183	2343	345040255045938
1170	2355	345040255895983
1158	2355	345040256725886
1146	2346	345040257558476
1150	2323	345040258378964
1155	2302	345040259194683
1156	2291	345040260034172
1152	2297	345040260955019
1154	2310	345040261829337
1162	2331	345040262641904
1172	2347	345040263233942
1175	2352	345040264053080
1174	2355	345040264914172
1162	2344	345040265661746
1161	2324	345040266500621
1165	2302	345040267303763
1174	2293	345040268131678
1184	2292	345040268974648
1202	2304	345040269835239
1224	2324	345040270646005
1247	2342	345040271480473
1269	2354	345040272311425
1282	2355	345040273122146
1276	2346	345040273933771
1267	2324	345040274792510
1264	2302	345040275599466
1270	2289	345040276423090
1278	2287	345040277228925
1293	2295	345040278044783
1309	2314	345040278877261
1323	2331	345040279713158
1327	2343	345040280524109
1320	2347	345040281365017
1306	2343	345040281980447
1300	2330	345040282831515
1295	2305	345040283645352
1292	2291	345040284479165
1286	2287	345040285296885
1282	2297	345040286109706
1273	2317	345040286975036
1259	2339	345040287820266
1244	2356	345040288626729
1232	2365	345040289464290
1220	2363	345040290231771
1214	2350	345040291204409
1204	2325	345040292037771
1192	2314	345040292890480
1185	2315	345040293704839
1173	2328	345040294356699
1167	2342	345040295165939
1155	2362	345040296129168
1147	2374	345040296977892
1143	2375	345040297817939
1135	2366	345040298605178
1128	2343	345040299404577
1119	2323	345040300218229
1112	2309	345040301254211
1116	2306	345040302098620
1134	2314	345040302732162
1141	2325	345040303538670
1138	2343	345040304343363
1127	2362	345040305101414
1122	2373	345040305944930
1114	2375	345040306825688
1112	2366	345040307635240
1114	2340	345040308456906
1122	2322	345040309272340
1132	2313	345040310094625
1141	2319	345040311018753
1143	2340	345040311907169
1139	2367	345040312750427
1138	2387	345040313557495
1137	2394	345040314392134
1136	2392	345040315205065
1126	2370	345040316158447
1121	2345	345040316997606
1113	2332	345040317832628
1102	2330	345040318645259
1089	2339	345040319364779
1081	2354	345040320178281
1088	2377	345040321196383
1106	2395	345040322037416
1119	2401	345040322886778
1126	2396	345040323609600
1124	2380	345040324439178
1117	2358	345040325264119
1105	2338	345040326166616
1092	2338	345040327129257
1091	2350	345040327991372
1099	2371	345040328839667
1118	2390	345040329648522
1143	2401	345040330468554
1153	2406	345040331310805
1153	2398	345040332147721
1149	2374	345040332992512
1142	2350	345040333842085
1131	2339	345040334670849
1133	2338	345040335490454
1147	2348	345040336330204
1157	2368	345040337188475
1170	2385	345040338006341
1170	2396	345040338854419
1170	2397	345040339681675
1171	2389	345040340490307
1170	2366	345040341335886
1165	2341	345040342170690
1158	2321	345040343002582
1155	2309	345040343836510
1152	2311	345040344640787
1161	2325	345040345455644
1176	2345	345040346292672
1182	2356	345040347091141
1178	2363	345040347927933
1167	2360	345040348554036
1157	2345	345040349387084
1149	2321	345040350198780
1148	2301	345040351278184
1149	2296	345040352087872
1150	2300	345040352918120
1146	2313	345040353692109
1140	2328	345040354526638
1127	2340	345040355338068
1125	2346	345040356172045
1126	2340	345040356804908
1125	2326	345040357611538
1127	2300	345040358423610
1126	2282	345040359254544
1124	2267	345040360063653
1132	2266	345040360899708
1140	2270	345040361760136
1143	2283	345040362573351
1132	2298	345040363385193
1127	2307	345040364199862
1122	2311	345040365037857
1109	2298	345040365884593
1100	2274	345040366711630
1099	2255	345040367341145
1111	2246	345040368160671
1142	2245	345040369019493
1169	2256	345040369662378
1176	2268	345040370461151
1167	2283	345040371300645
1167	2295	345040372113616
1170	2301	345040372965807
1169	2297	345040373832665
1168	2278	345040374645204
1167	2257	345040375464867
1164	2243	345040376321577
1154	2241	345040377142882
1140	2251	345040377985736
1129	2272	345040378852292
1130	2291	345040379665521
1143	2305	345040380486152
1154	2309	345040381325561
1146	2304	345040382135480
1138	2284	345040382986370
1133	2262	345040383845053
1129	2253	345040384652296
1124	2252	345040385475500
1130	2262	345040386313824
1151	2277	345040387041504
1176	2293	345040387872258
1191	2307	345040388700783
1183	2314	345040389522194
1175	2309	345040390178064
1176	2290	345040391217601
1180	2267	345040392104345
1189	2251	345040392937119
1197	2246	345040393777233
1210	2254	345040394583222
1218	2271	345040395409227
1221	2291	345040396269903
1219	2302	345040397086687
1211	2307	345040397936696
1211	2301	345040398805201
1215	2283	345040399620712
1221	2260	345040400429369
1216	2245	345040401191050
1207	2240	345040402038172
1191	2242	345040402681225
1183	2252	345040403516617
1170	2272	345040404329773
1163	2289	345040405141701
1156	2303	345040405970324
1155	2306	345040406810876
1146	2296	345040407626581
1135	2272	345040408461711
1125	2253	345040409179884
1119	2246	345040410077441
1119	2249	345040410986959
1127	2264	345040411853561
1145	2282	345040412662645
1160	2295	345040413473551
1165	2303	345040414287237
1166	2304	345040415094500
1157	2291	345040415948861
1150	2267	345040416780040
1145	2244	345040417599577
1142	2231	345040418437015
1138	2231	345040419252861
1129	2247	345040420070209
1117	2272	345040420983066
1114	2295	345040421661377
1120	2302	345040422479109
1124	2304	345040423283944
1133	2293	345040424064097
1136	2269	345040424870391
1128	2254	345040425532897
1121	2245	345040426339100
1109	2242	345040427120665
1106	2250	345040427951857
1107	2261	345040428761822
1109	2274	345040429547597
1099	2284	345040430348882
1099	2288	345040431208822
1096	2279	345040432030237
1096	2258	345040432861271
1104	2234	345040433643197
1118	2217	345040434421508
1121	2208	345040435194035
1111	2207	345040436034282
1113	2220	345040436856569
1130	2235	345040437695078
1141	2254	345040438502778
1138	2267	345040439315186
1133	2271	345040440127131
1140	2260	345040440968206
1151	2239	345040441891607
1145	2221	345040442725417
1151	2213	345040443536349
1169	2218	345040444303718
1195	2232	345040445131369
1229	2250	345040445974654
1248	2267	345040446833464
1245	2276	345040447663384
1238	2273	345040448473059
1227	2260	345040449318361
1226	2234	345040450130110
1238	2212	345040451038053
1244	2201	345040451882515
1243	2206	345040452687275
1233	2218	345040453511930
1223	2232	345040454329477
1212	2241	345040455129821
1202	2246	345040455987484
1191	2242	345040456817155
1186	2229	345040457645297
1192	2205	345040458465464
1197	2189	345040459279354
1199	2183	345040460110632
1204	2185	345040461027675
1217	2196	345040461904883
1234	2207	345040462717389
1245	2215	345040463479620
1241	2220	345040464268081
1230	2223	345040465074588
1217	2212	345040465888015
1208	2193	345040466684124
1204	2172	345040467285111
1200	2165	345040468063708
1205	2165	345040468912395
1217	2177	345040469769767
1212	2194	345040470581327
1201	2206	345040471415140
1199	2217	345040472242066
1199	2221	345040473053828
1207	2212	345040473915335
1233	2193	345040474828807
1261	2169	345040475565695
1270	2156	345040476405449
1281	2153	345040477216018
1297	2161	345040478049708
1311	2175	345040478896633
1316	2193	345040479727878
1307	2207	345040480538450
1313	2219	345040481377709
1350	2214	345040482187608
1383	2193	345040483032941
1410	2169	345040483877184
1413	2156	345040484702169
1404	2153	345040485516968
1394	2154	345040486344403
1379	2168	345040487176554
1367	2181	345040488015433
1357	2191	345040488853207
1351	2196	345040489665075
1341	2192	345040490476233
1333	2178	345040491309317
1338	2155	345040492141171
1332	2134	345040492997634
1355	2133	345040493662329
1379	2141	345040494374261
1410	2156	345040495194129
1447	2172	345040496164995
1469	2183	345040497015615
1478	2185	345040497860996
1481	2180	345040498450486
1471	2168	345040499282228
1458	2143	345040500096799
1451	2127	345040501019703
1449	2119	345040501964308
1452	2119	345040502694243
1451	2127	345040503506126
1446	2139	345040504311355
1435	2151	345040505186145
1428	2156	345040506156460
1422	2150	345040506818498
1412	2142	345040507630516
1399	2120	345040508426878
1396	2100	345040509235079
1399	2085	345040510056291
1408	2087	345040510942547
1413	2097	345040511825937
1412	2116	345040512656123
1425	2130	345040513481663
1453	2135	345040514139133
1468	2133	345040514984539
1461	2123	345040515827173
1458	2107	345040516662314
1468	2084	345040517478954
1479	2069	345040518304434
1485	2067	345040519155558
1481	2076	345040520002521
1477	2093	345040520917523
1461	2116	345040521667973
1454	2127	345040522484655
1456	2132	345040523292054
1468	2124	345040524134217
1481	2101	345040524986240
1495	2081	345040525829118
1514	2072	345040526687926
1528	2077	345040527476231
1542	2087	345040528299296
1540	2103	345040529108203
1531	2118	345040529956338
1522	2132	345040530875080
1525	2141	345040531737115
1514	2132	345040532550741
1513	2110	345040533367478
1527	2096	345040534197652
1555	2089	345040535037343
1573	2086	345040535881353
1580	2098	345040536610645
1576	2113	345040537432123
1564	2130	345040538069679
1567	2144	345040538924591
1601	2148	345040539728651
1655	2140	345040540538133
1706	2122	345040541386506
1726	2100	345040542199314
1712	2082	345040543037125
1707	2078	345040543894793
1732	2087	345040544563771
1773	2101	345040545380590
1812	2122	345040546205918
1830	2140	345040547044220
1843	2144	345040547876074
1844	2138	345040548707301
1828	2116	345040549529363
1811	2095	345040550344607
1789	2075	345040551257266
1776	2068	345040552076983
1777	2069	345040552699978
1779	2081	345040553533930
1776	2095	345040554361557
1770	2109	345040555147687
1756	2123	345040555994599
1743	2125	345040556820659
1740	2116	345040557639473
1750	2095	345040558472092
1764	2080	345040559281706
1773	2071	345040560090937
1784	2079	345040561106218
1812	2095	345040561971201
1836	2115	345040562823335
1850	2126	345040563667901
1867	2128	345040564486410
1865	2122	345040565204672
1859	2105	345040566191147
1878	2082	345040567039228
1887	2071	345040567877481
1894	2064	345040568709737
1912	2068	345040569341407
1922	2080	345040570140565
1916	2100	345040571040670
1901	2114	345040571903616
1894	2120	345040572708013
1893	2115	345040573419298
1896	2100	345040574234885
1900	2079	345040575057140
1910	2063	345040575896232
1927	2052	345040576727158
1944	2055	345040577568753
1960	2068	345040578404759
1972	2085	345040579219411
1987	2101	345040580057728
1982	2109	345040580996624
1970	2107	345040581834638
1970	2091	345040582648527
1975	2071	345040583460603
1984	2055	345040584276927
1981	2049	345040585090284
1958	2060	345040585953922
1945	2075	345040586803598
1926	2091	345040587613766
1908	2104	345040588423526
1900	2111	345040589240401
1906	2106	345040590062443
1909	2093	345040590988435
1895	2072	345040591844537
1882	2055	345040592444857
1869	2049	345040593277216
1850	2051	345040594091079
1833	2067	345040594901460
1822	2082	345040595706614
1807	2101	345040596457942
1818	2109	345040597281606
1833	2116	345040598125356
1839	2105	345040598933139
1824	2085	345040599730783
1805	2063	345040600539092
1793	2053	345040601382259
1780	2053	345040602198718
1771	2063	345040603044918
1776	2083	345040603897147
1781	2101	345040604706525
1772	2115	345040605545065
1763	2114	345040606382077
1773	2107	345040607066788
1783	2093	345040607911858
1786	2071	345040608736982
1796	2056	345040609560387
1797	2054	345040610363364
1795	2066	345040611290584
1792	2084	345040612104740
1780	2104	345040612959206
1765	2117	345040613662789
1766	2120	345040614475715
1764	2121	345040615174777
1753	2108	345040616133707
1734	2082	345040616945334
1722	2073	345040617798480
1707	2070	345040618611837
1702	2076	345040619331611
1706	2092	345040620157259
1704	2112	345040621066932
1687	2126	345040621940159
1679	2133	345040622802155
1664	2128	345040623454775
1651	2117	345040624271536
1639	2094	345040625032177
1634	2077	345040625890448
1635	2068	345040626728961
1638	2069	345040627570189
1642	2079	345040628349211
1644	2093	345040629172512
1648	2111	345040630028736
1652	2122	345040630952070
1645	2119	345040631808930
1634	2106	345040632635370
1624	2084	345040633443755
1612	2068	345040634135712
1600	2061	345040634997639
1584	2060	345040635836460
1570	2069	345040636680010
1558	2083	345040637461602
1543	2092	345040638081652
1531	2098	345040638919563
1516	2100	345040639631158
1505	2094	345040640201278
1506	2077	345040641220036
1521	2055	345040641978208
1529	2044	345040642809902
1522	2039	345040643620346
1507	2040	345040644339935
1493	2046	345040645162487
1476	2058	345040646021370
1464	2072	345040646893289
1461	2078	345040647714558
1455	2075	345040648458955
1445	2062	345040649286716
1445	2041	345040650122336
1441	2027	345040651035771
1441	2019	345040651972880
1442	2023	345040652709479
1438	2036	345040653522152
1422	2049	345040654331076
1413	2062	345040655137054
1403	2067	345040655978447
1405	2063	345040656842268
1412	2051	345040657655337
1408	2031	345040658467351
1401	2017	345040659271813
1404	2008	345040660144679
1413	2014	345040660911579
1425	2025	345040661661698
1437	2037	345040662476425
1446	2050	345040663086920
1451	2055	345040663946545
1452	2058	345040664760766
1444	2052	345040665571342
1432	2035	345040666403182
1419	2013	345040667208377
1408	2002	345040668053160
1394	1999	345040668917901
1381	2005	345040669674152
1373	2018	345040670497089
1365	2033	345040671327731
1361	2046	345040672151587
1354	2048	345040672985583
1345	2045	345040673844698
1335	2025	345040674651519
1332	2008	345040675458418
1332	1996	345040676303643
1331	1995	345040677116647
1342	2000	345040677959819
1362	2012	345040678821575
1376	2025	345040679631267
1384	2035	345040680440808
1386	2037	345040681201045
1378	2032	345040681845393
1369	2019	345040682653386
1361	1999	345040683479987
1360	1984	345040684290933
1366	1978	345040685102789
1378	1976	345040685941670
1387	1987	345040686803382
1393	2000	345040687613035
1391	2011	345040688446742
1381	2017	345040689259276
1375	2016	345040690079484
1383	2002	345040691005974
1389	1982	345040691876350
1393	1973	345040692658736
1388	1972	345040693502935
1379	1977	345040694308902
1374	1989	345040695126657
1373	2003	345040695972497
1373	2012	345040696881644
1365	2013	345040697663194
1352	2013	345040698468980
1338	2003	345040699279081
1324	1983	345040700086237
1315	1966	345040701005635
1313	1959	345040701890392
1310	1964	345040702706672
1305	1982	345040703544315
1300	1999	345040704362828
1293	2018	345040705155618
1280	2032	345040706020035
1267	2032	345040706847915
1255	2024	345040707658679
1249	2009	345040708464011
1245	1988	345040709275633
1241	1977	345040710094767
1244	1984	345040710963590
1259	2004	345040711827077
1279	2031	345040712639733
1288	2054	345040713443424
1286	2065	345040714136685
1283	2070	345040714979123
1276	2058	345040715831147
1264	2036	345040716665223
1252	2018	345040717476935
1250	2008	345040718307409
1264	2004	345040719115547
1296	2013	345040719958514
1327	2031	345040720710867
1340	2045	345040721345367
1334	2055	345040722167755
1321	2067	345040723028668
1316	2066	345040723870801
1315	2050	345040724686852
1309	2030	345040725500994
1301	2019	345040726337377
1292	2014	345040727155015
1287	2011	345040728020068
1288	2019	345040728863888
1285	2040	345040729682960
1287	2055	345040730508319
1294	2061	345040731322374
1299	2056	345040732136380
1295	2037	345040732990602
1282	2017	345040733663627
1274	2011	345040734474115
1265	2009	345040735281093
1264	2011	345040736214661
1273	2023	345040737048039
1279	2035	345040737960325
1282	2048	345040738802569
1289	2053	345040739617952
1286	2045	345040740420174
1277	2025	345040741272616
1270	2011	345040742087833
1260	2007	345040742950875
1250	2012	345040743764504
1241	2026	345040744352500
1247	2037	345040745183178
1256	2056	345040746152371
1257	2066	345040746996637
1249	2069	345040747827346
1238	2058	345040748467533
1228	2043	345040749275532
1218	2024	345040750114033
1211	2014	345040751021904
1204	2010	345040751887774
1204	2012	345040752598551
1206	2019	345040753412959
1209	2034	345040754220925
1213	2047	345040755076513
1210	2045	345040755895115
1203	2032	345040756724789
1190	2013	345040757556945
1183	1990	345040758372726
1176	1971	345040759185457
1173	1951	345040760043204
1169	1936	345040760965854
1166	1930	345040761911386
1161	1941	345040762721295
1153	1954	345040763537666
1140	1965	345040764345815
1129	1982	345040765067000
1118	1996	345040765912158
1111	1992	345040766740931
1111	1975	345040767545561
1112	1975	345040768334443
1117	1987	345040769144139
1122	2020	345040769998723
1127	2057	345040770914842
1129	2087	345040771753563
1127	2105	345040772567977
1122	2104	345040773381036
1111	2091	345040774161768
1101	2073	345040774986133
1091	2073	345040775602188
1087	2081	345040776433403
1085	2088	345040777275279
1087	2101	345040778092294
1090	2120	345040778976407
1087	2136	345040779724657
1081	2143	345040780538886
1076	2140	345040781382382
1065	2122	345040782228412
1056	2106	345040783068846
1056	2103	345040783849377
1057	2098	345040784611780
1062	2089	345040785445259
1073	2088	345040786379933
1084	2105	345040787208832
1094	2124	345040788043487
1100	2140	345040788883020
1101	2141	345040789662486
1094	2129	345040790479215
1083	2110	345040791313114
1072	2092	345040792155783
1066	2083	345040792990075
1056	2083	345040793828643
1047	2095	345040794629410
1042	2110	345040795440127
1033	2128	345040796268519
1026	2141	345040797099601
1016	2142	345040797942931
1006	2134	345040798758503
998	2113	345040799595018
992	2095	345040800405271
988	2087	345040801243029
987	2083	345040802089084
990	2086	345040802931993
994	2102	345040803747757
1003	2120	345040804582622
1010	2132	345040805388912
1019	2136	345040806226247
1024	2131	345040806857813
1024	2121	345040807669300
1024	2100	345040808487342
1014	2090	345040809296605
1010	2089	345040810122219
1008	2108	345040810985331
1011	2128	345040811865308
1014	2143	345040812675795
1011	2145	345040813491425
1001	2142	345040814137880
996	2135	345040814978657
991	2126	345040815813385
994	2108	345040816647743
1003	2086	345040817239412
1004	2074	345040818065984
1006	2060	345040818928851
1009	2067	345040819712166
1017	2085	345040820522804
1024	2109	345040821284071
1033	2127	345040822096516
1039	2143	345040822948879
1037	2152	345040823772679
1025	2143	345040824583740
1015	2124	345040825406405
1010	2109	345040826252434
1006	2109	345040827181242
999	2123	345040828022940
1000	2141	345040828884406
994	2160	345040829692412
989	2170	345040830505121
981	2177	345040831341841
970	2170	345040832154737
965	2153	345040832993970
957	2130	345040833853488
954	2116	345040834662346
952	2109	345040835472849
967	2117	345040836296702
986	2135	345040837110112
1006	2152	345040837902772
1023	2163	345040838728518
1034	2169	345040839541742
1045	2164	345040840356234
1049	2143	345040841390702
1044	2124	345040842216188
1033	2115	345040843022787
1023	2113	345040843860608
1011	2116	345040844604971
1001	2120	345040845427357
992	2131	345040846280525
981	2140	345040847068831
973	2139	345040847968976
969	2131	345040848772321
969	2110	345040849582318
971	2086	345040850389102
977	2070	345040851358328
986	2065	345040852142870
999	2073	345040852850274
1009	2085	345040853679316
1019	2093	345040854495267
1024	2102	345040855308997
1026	2111	345040856233191
1024	2111	345040856856043
1021	2106	345040857663052
1012	2085	345040858503660
1002	2071	345040859316584
991	2064	345040860133745
979	2072	345040860900666
973	2083	345040861744627
965	2103	345040862566491
956	2130	345040863399927
947	2148	345040864220774
946	2155	345040865055749
950	2141	345040865925769
953	2117	345040866762063
959	2101	345040867578970
969	2094	345040868412457
981	2099	345040869223984
993	2118	345040870062954
1003	2146	345040870977018
1013	2170	345040871836038
1020	2185	345040872652134
1019	2184	345040873484287
1014	2173	345040874298202
1004	2153	345040875113487
991	2143	345040876106416
980	2143	345040876959765
971	2156	345040877608927
966	2174	345040878439892
962	2197	345040879260066
952	2212	345040880095741
941	2219	345040880950630
935	2219	345040881785966
936	2199	345040882599291
940	2181	345040883402959
945	2171	345040884206898
953	2169	345040885045266
965	2185	345040885913324
981	2210	345040886748018
996	2230	345040887566451
1007	2239	345040888370131
1012	2242	345040889185711
1012	2235	345040890026639
1006	2218	345040890950451
995	2194	345040891782036
985	2183	345040892568698
980	2177	345040893393231
978	2182	345040894211686
980	2202	345040894905167
978	2214	345040895714619
968	2222	345040896361972
961	2222	345040897227464
950	2223	345040898099114
945	2216	345040898950624
945	2197	345040899772594
955	2175	345040900585853
968	2164	345040901409448
980	2162	345040902142833
991	2173	345040903007105
1000	2197	345040903897802
1005	2218	345040904713775
1008	2232	345040905540966
1004	2240	345040906370140
999	2241	345040907180889
988	2229	345040908040548
980	2207	345040908869738
969	2194	345040909688234
963	2200	345040910502102
957	2217	345040911344597
952	2231	345040912161177
947	2258	345040913026399
941	2279	345040913961532
932	2290	345040914777774
925	2283	345040915582693
923	2261	345040916409332
929	2241	345040917227550
933	2229	345040918050144
945	2229	345040918888556
963	2241	345040919741681
982	2262	345040920584386
997	2279	345040921368353
1004	2287	345040922188690
1005	2294	345040923023851
998	2292	345040923878178
986	2280	345040924690141
977	2256	345040925498472
970	2238	345040926327677
968	2231	345040927130297
969	2246	345040927965046
972	2271	345040928772422
971	2297	345040929583975
965	2314	345040930412902
957	2323	345040931296641
945	2318	345040932107355
940	2298	345040932958234
944	2275	345040933773556
953	2261	345040934585357
963	2261	345040935391258
978	2274	345040936243228
991	2296	345040937083961
1003	2319	345040937961111
1009	2330	345040938773492
1012	2331	345040939591871
1010	2322	345040940397539
1000	2296	345040941305188
989	2280	345040942135072
980	2270	345040942996572
973	2271	345040943834113
971	2277	345040944644120
971	2284	345040945448167
967	2296	345040946284121
960	2302	345040947106919
949	2305	345040947966639
943	2297	345040948734342
944	2275	345040949548738
956	2252	345040950380713
971	2240	345040951296553
985	2234	345040952115549
1005	2240	345040953069274
1022	2259	345040953858318
1035	2276	345040954629483
1041	2290	345040955453598
1041	2291	345040956271636
1039	2282	345040957105435
1033	2262	345040957946416
1025	2237	345040958760342
1016	2218	345040959571760
1005	2211	345040960373060
992	2222	345040961325087
986	2243	345040962140722
977	2270	345040962990407
968	2288	345040963821943
960	2299	345040964629387
959	2294	345040965404415
963	2274	345040966140992
969	2251	345040966988614
975	2238	345040967848672
977	2238	345040968664990
984	2245	345040969255882
990	2259	345040970109789
1003	2282	345040971026134
1017	2302	345040971859749
1024	2315	345040972691701
1022	2320	345040973493286
1013	2312	345040974148998
1003	2294	345040974989745
992	2275	345040975828667
979	2265	345040976667756
968	2268	345040977501488
962	2284	345040978313958
956	2304	345040979127286
945	2330	345040979744317
939	2341	345040980552051
928	2350	345040981390714
920	2342	345040982199336
913	2321	345040983040162
908	2297	345040983878308
901	2282	345040984706639
901	2277	345040985521245
910	2286	345040986344584
925	2306	345040987177293
936	2327	345040987998145
940	2342	345040988804189
940	2350	345040989585344
937	2348	345040990364272
925	2333	345040991262243
916	2315	345040992086477
909	2294	345040992896179
900	2293	345040993682387
895	2307	345040994474056
892	2329	345040995262360
890	2356	345040996201930
884	2374	345040997029816
877	2382	345040997861169
868	2379	345040998468226
864	2367	345040999269940
866	2342	345041000081852
874	2325	345041001009356
885	2324	345041001845438
895	2329	345041002623182
904	2343	345041003440947
912	2363	345041004271084
911	2380	345041004995450
908	2390	345041005837976
901	2391	345041006668825
891	2382	345041007487215
885	2359	345041008295254
876	2338	345041009237067
870	2329	345041010089590
869	2332	345041010968622
869	2344	345041011848903
866	2363	345041012656551
858	2379	345041013441202
849	2386	345041014272276
843	2387	345041015106703
843	2371	345041015952550
844	2345	345041016780110
843	2320	345041017596874
845	2306	345041018407253
850	2306	345041019227865
854	2324	345041020048735
857	2346	345041020954203
858	2363	345041021661761
855	2374	345041022476712
852	2376	345041023293875
845	2369	345041024122827
837	2345	345041024979314
828	2325	345041025792608
822	2314	345041026650527
820	2313	345041027466195
824	2328	345041028282683
824	2348	345041029042906
821	2367	345041029761921
814	2379	345041030574713
806	2385	345041031436499
804	2378	345041032248032
804	2354	345041033084711
806	2335	345041033923891
807	2330	345041034740224
809	2331	345041035553098
815	2341	345041036396594
822	2361	345041037215185
826	2379	345041038003984
826	2394	345041038855276
820	2399	345041039661544
814	2393	345041040469654
804	2372	345041041330238
795	2349	345041042150325
787	2336	345041042999632
781	2335	345041043803793
778	2346	345041044613770
778	2367	345041045426807
774	2392	345041046283456
766	2408	345041047117005
757	2413	345041047960671
752	2409	345041048766115
751	2387	345041049581721
754	2364	345041050397311
760	2348	345041051316192
767	2348	345041052135287
775	2359	345041052870212
781	2379	345041053707592
784	2399	345041054523400
784	2418	345041055339516
781	2432	345041056248630
776	2427	345041057094658
767	2410	345041057944268
757	2387	345041058785142
752	2376	345041059606492
752	2378	345041060417081
754	2393	345041061346613
760	2415	345041062168927
762	2433	345041063003808
758	2443	345041063867799
752	2448	345041064676071
753	2440	345041065508481
756	2414	345041066362878
758	2392	345041067177292
761	2377	345041068013918
765	2376	345041068776351
773	2388	345041069590533
781	2413	345041070401794
785	2438	345041071315040
785	2454	345041072134672
780	2457	345041072978862
774	2449	345041073788843
766	2425	345041074599810
757	2403	345041075413559
751	2393	345041076255947
751	2393	345041077180272
751	2406	345041078036784
755	2427	345041078906589
755	2450	345041079716167
751	2465	345041080534179
743	2473	345041081375214
740	2465	345041082193979
741	2443	345041083039502
743	2421	345041083879159
743	2414	345041084698733
744	2412	345041085515010
746	2429	345041086448100
745	2453	345041087263306
745	2477	345041088008620
744	2500	345041088863191
743	2516	345041089677872
738	2511	345041090489317
727	2486	345041091349048
720	2465	345041092167495
710	2460	345041093012682
705	2469	345041093847307
702	2486	345041094661217
697	2507	345041095489687
691	2530	345041096338945
682	2543	345041097151994
676	2546	345041097992418
678	2534	345041098899478
681	2508	345041099718068
688	2490	345041100508029
692	2480	345041101268463
695	2480	345041102125349
699	2492	345041102977413
711	2513	345041103810835
726	2533	345041104628140
738	2548	345041105410036
745	2553	345041106260745
747	2541	345041107099051
739	2516	345041107942542
733	2494	345041108774008
729	2481	345041109588928
720	2483	345041110401236
722	2498	345041111313496
729	2520	345041112127800
736	2542	345041112968056
740	2554	345041113661819
741	2560	345041114477165
737	2555	345041115156630
731	2534	345041116021002
725	2510	345041116856017
722	2500	345041117667242
720	2498	345041118474050
726	2509	345041119262240
727	2532	345041120107579
725	2561	345041121158741
723	2577	345041122032580
718	2583	345041122874108
710	2576	345041123509432
704	2558	345041124322604
701	2534	345041125135297
702	2521	345041126144633
707	2526	345041127002967
711	2542	345041127634753
716	2560	345041128457391
720	2587	345041129262247
720	2607	345041130097165
716	2612	345041131032571
709	2601	345041131759216
702	2577	345041132570149
695	2555	345041133386326
691	2545	345041134128986
690	2543	345041134971933
695	2552	345041135799943
708	2566	345041136627640
718	2583	345041137453623
721	2602	345041138027763
719	2615	345041138860341
716	2620	345041139667014
708	2607	345041140487464
705	2580	345041141331684
702	2566	345041142139317
703	2558	345041142991175
708	2564	345041143797297
713	2582	345041144603212
720	2605	345041145434846
724	2621	345041146265839
725	2629	345041147096788
722	2629	345041147954090
715	2614	345041148632994
714	2591	345041149455164
711	2569	345041150288905
708	2557	345041151313891
708	2562	345041152133330
710	2582	345041152971175
715	2609	345041153664582
716	2624	345041154484843
711	2635	345041155313758
702	2634	345041156258775
696	2619	345041157011546
695	2595	345041157875361
691	2574	345041158690201
688	2561	345041159501078
690	2563	345041160314562
700	2586	345041161354034
711	2613	345041162177919
718	2640	345041163014225
720	2648	345041163850780
716	2643	345041164660509
709	2623	345041165382410
705	2598	345041166271441
708	2579	345041167104982
710	2572	345041167963106
713	2575	345041168778047
718	2591	345041169591850
723	2615	345041170423570
727	2632	345041171321568
726	2641	345041172135471
720	2639	345041172896637
713	2628	345041173711622
710	2602	345041174524774
708	2582	345041175356817
711	2570	345041176276893
715	2575	345041177238928
719	2590	345041178079804
724	2612	345041178929406
723	2627	345041179643061
719	2633	345041180479359
713	2629	345041181310827
707	2611	345041182135091
701	2584	345041183000383
698	2566	345041183812001
696	2558	345041184627784
697	2560	345041185425270
700	2571	345041186261069
704	2589	345041187093627
705	2603	345041187966768
704	2612	345041188783922
699	2610	345041189604926
691	2592	345041190435008
684	2564	345041191327540
680	2550	345041192141348
677	2540	345041192963040
675	2541	345041193778619
675	2553	345041194560372
679	2573	345041195388620
682	2589	345041196275789
682	2590	345041197116323
674	2584	345041197907820
671	2571	345041198719713
668	2544	345041199533479
667	2524	345041200361609
666	2514	345041201360801
667	2517	345041202179794
669	2529	345041203013275
671	2549	345041203821581
672	2566	345041204641365
672	2576	345041205473710
668	2569	345041206138186
664	2554	345041207028035
657	2526	345041207888757
649	2504	345041208699820
645	2496	345041209514570
646	2497	345041210320590
647	2515	345041211347292
651	2536	345041212165260
647	2557	345041213024506
640	2563	345041213662459
637	2563	345041214473862
637	2548	345041215172508
637	2526	345041216009897
638	2510	345041216866556
638	2500	345041217703242
637	2505	345041218523610
641	2517	345041219272535
645	2535	345041220129587
649	2554	345041220972533
647	2566	345041221816439
642	2568	345041222650229
635	2561	345041223399049
634	2541	345041224208595
634	2518	345041225046304
638	2506	345041225912043
639	2501	345041226755367
640	2513	345041227592908
640	2537	345041228403794
642	2563	345041229225928
639	2578	345041230080246
632	2578	345041231002945
626	2564	345041231774843
626	2541	345041232605132
631	2521	345041233405400
642	2512	345041234191018
653	2514	345041235047097
661	2524	345041235878864
667	2546	345041236710082
673	2564	345041237536539
671	2570	345041238350575
666	2572	345041239159103
659	2563	345041240019168
654	2541	345041240915100
649	2516	345041241663688
647	2505	345041242487313
646	2501	345041243310507
648	2511	345041244138064
645	2527	345041244902971
639	2541	345041245711214
639	2553	345041246400546
640	2557	345041247233542
634	2553	345041248080669
628	2534	345041248919203
621	2508	345041249662111
617	2493	345041250489761
613	2488	345041251330016
613	2492	345041252163647
620	2506	345041252896105
630	2525	345041253708651
645	2542	345041254523697
651	2552	345041255333140
643	2548	345041256268954
637	2530	345041257135576
632	2503	345041257990623
629	2489	345041258802618
622	2479	345041259626443
621	2482	345041260446508
621	2501	345041261374487
616	2523	345041262222012
612	2542	345041263031480
606	2549	345041263872860
603	2546	345041264682348
608	2529	345041265500123
617	2503	345041266334431
631	2486	345041267160577
646	2481	345041268008267
657	2485	345041268791289
662	2499	345041269619888
668	2518	345041270432499
671	2529	345041271335825
671	2533	345041272168577
667	2526	345041273012802
662	2507	345041273664530
656	2486	345041274501493
654	2465	345041275315480
657	2450	345041276269362
659	2445	345041277030067
660	2451	345041277653453
659	2461	345041278466654
653	2479	345041279297898
651	2493	345041280113703
646	2499	345041281021799
639	2491	345041281663916
636	2475	345041282478683
631	2450	345041283293257
631	2438	345041284154189
636	2437	345041284986716
642	2443	345041285802696
648	2465	345041286649733
652	2487	345041287464592
649	2500	345041288285039
644	2509	345041289254918
636	2499	345041290099593
630	2475	345041291020023
623	2455	345041291874520
616	2447	345041292684732
611	2449	345041293500242
604	2464	345041294282269
600	2487	345041295213297
595	2507	345041296069559
589	2520	345041296952281
582	2519	345041297663228
577	2508	345041298408538
572	2483	345041299234427
566	2465	345041300071636
560	2457	345041300774539
556	2460	345041301633100
552	2469	345041302450657
550	2488	345041303265508
550	2508	345041304104306
547	2520	345041304948608
542	2524	345041305745460
536	2513	345041306607909
530	2488	345041307420825
527	2468	345041308185215
525	2458	345041308908714
526	2452	345041309740741
529	2454	345041310559864
534	2465	345041311382680
534	2480	345041312196467
532	2494	345041313030940
527	2500	345041313913193
521	2495	345041314729725
519	2472	345041315546468
522	2449	345041316397775
524	2433	345041317157617
525	2425	345041318002461
526	2431	345041318807358
530	2446	345041319650115
529	2465	345041320460449
525	2482	345041321349701
526	2490	345041322168167
524	2484	345041323008943
519	2465	345041323811985
516	2439	345041324625990
512	2422	345041325439609
507	2416	345041326291308
504	2420	345041327217663
501	2433	345041328056930
502	2446	345041328967869
497	2454	345041329632817
496	2454	345041330449504
494	2446	345041331354634
495	2425	345041332171015
506	2402	345041333020372
519	2381	345041333665108
523	2374	345041334483751
519	2375	345041335297363
513	2389	345041336253292
510	2413	345041337102782
512	2430	345041337952879
518	2440	345041338771879
520	2439	345041339592290
524	2427	345041340447418
528	2401	345041341364765
528	2387	345041342160981
526	2381	345041343006238
520	2387	345041343816273
515	2402	345041344635177
513	2423	345041345468911
515	2443	345041346286766
517	2454	345041347123336
524	2451	345041347964760
530	2434	345041348657260
532	2413	345041349471115
535	2396	345041350282355
546	2388	345041351404437
554	2395	345041352220742
555	2413	345041353062764
551	2437	345041353915310
546	2459	345041354661681
545	2470	345041355472299
544	2467	345041356320025
548	2449	345041357032623
550	2428	345041357879803
556	2413	345041358693558
555	2405	345041359509911
554	2409	345041360319894
548	2429	345041361371588
545	2454	345041362195870
539	2473	345041363036745
538	2480	345041363856025
537	2478	345041364672799
533	2460	345041365485351
529	2434	345041366318637
528	2422	345041367157047
529	2418	345041368003597
529	2428	345041368815566
530	2454	345041369634951
533	2485	345041370449337
534	2510	345041371288276
535	2528	345041372189359
538	2531	345041373027060
540	2515	345041373836891
540	2489	345041374647245
540	2478	345041375457696
538	2480	345041376302890
537	2489	345041377138639
535	2513	345041377976153
530	2538	345041378806459
524	2557	345041379619825
521	2564	345041380434433
517	2553	345041381196121
511	2532	345041382047036
508	2513	345041382937732
503	2499	345041383775434
500	2494	345041384602100
496	2496	345041385419254
496	2514	345041386295617
502	2541	345041387314473
503	2560	345041388043362
508	2568	345041388803184
517	2566	345041389617090
532	2545	345041390427658
556	2519	345041391349137
574	2507	345041392169540
588	2503	345041393016986
596	2507	345041393821302
599	2521	345041394601046
599	2535	345041395395991
593	2547	345041396292664
592	2551	345041397134515
597	2547	345041397977417
607	2530	345041398778289
620	2504	345041399592951
634	2491	345041400414985
656	2478	345041401503339
669	2484	345041402323352
686	2507	345041403156237
708	2541	345041404019533
723	2565	345041404676923
725	2576	345041405490364
720	2572	345041406317097
711	2551	345041407162637
701	2526	345041408000832
694	2518	345041408760710
688	2520	345041409576457
687	2530	345041410394028
693	2556	345041411368090
700	2578	345041412188566
698	2592	345041413026748
692	2591	345041413877574
692	2577	345041414696652
698	2551	345041415484224
702	2530	345041416340284
708	2519	345041417167654
716	2518	345041418052135
728	2525	345041418890281
741	2544	345041419694901
755	2566	345041420501359
769	2576	345041421291312
781	2579	345041422138921
792	2570	345041422983220
802	2551	345041423782070
805	2526	345041424591825
801	2509	345041425407824
791	2502	345041426297038
790	2506	345041427136808
801	2524	345041427973536
818	2548	345041428810327
852	2565	345041429636479
881	2563	345041430453475
902	2549	345041431360359
913	2526	345041432174862
921	2500	345041433024147
920	2483	345041433664169
914	2478	345041434482509
906	2481	345041435297831
907	2496	345041436252670
912	2517	345041437083979
916	2531	345041437925332
916	2537	345041438753142
911	2537	345041439568554
907	2530	345041440378340
903	2502	345041441349373
900	2486	345041442172371
893	2481	345041443024577
883	2486	345041443821759
878	2504	345041444634168
879	2532	345041445428414
879	2556	345041446137953
881	2567	345041446978002
884	2567	345041447788388
896	2549	345041448430659
912	2529	345041449244151
930	2515	345041450087351
946	2507	345041451019002
955	2511	345041451849751
954	2528	345041452547992
948	2548	345041453374657
943	2571	345041454192111
934	2586	345041455036741
928	2588	345041455897953
925	2573	345041456730559
925	2545	345041457565178
925	2530	345041458276285
925	2522	345041459101327
924	2520	345041459933983
923	2531	345041460761511
917	2552	345041461598014
913	2573	345041462416481
908	2585	345041463057465
905	2588	345041463895496
900	2583	345041464712357
896	2563	345041465548846
890	2538	345041466380124
878	2524	345041467187510
868	2518	345041468038798
860	2521	345041468847283
849	2535	345041469658092
842	2559	345041470498057
831	2582	345041471309606
823	2598	345041472151698
814	2600	345041472993074
806	2581	345041473809588
799	2554	345041474631685
800	2544	345041475465202
803	2540	345041476302860
800	2550	345041477145344
803	2572	345041477965073
803	2600	345041478785235
806	2618	345041479604067
809	2627	345041480432942
807	2622	345041481364619
803	2598	345041482186986
796	2583	345041483050885
797	2582	345041483800200
799	2587	345041484614515
804	2599	345041485397680
815	2622	345041486297689
827	2644	345041487141300
833	2661	345041488002032
839	2664	345041488812439
840	2654	345041489628310
835	2628	345041490434933
824	2605	345041491361604
817	2597	345041492172762
811	2598	345041492934004
806	2608	345041493752431
806	2628	345041494551187
803	2647	345041495378649
797	2665	345041496302047
791	2676	345041497142977
783	2673	345041497967448
777	2657	345041498785456
770	2631	345041499603205
764	2615	345041500440531
760	2609	345041501273748
760	2614	345041502134201
757	2633	345041503036912
761	2654	345041503854400
762	2671	345041504665775
759	2676	345041505491899
753	2671	345041506324813
743	2651	345041507156391
737	2623	345041508030194
733	2612	345041508808626
731	2611	345041509625775
730	2620	345041510419348
732	2640	345041511378265
739	2662	345041512191890
745	2685	345041513054765
744	2688	345041513919116
736	2677	345041514735726
728	2649	345041515573233
725	2623	345041516414575
724	2604	345041517178678
723	2591	345041518041693
720	2592	345041518853275
719	2615	345041519664650
722	2651	345041520497083
730	2682	345041521300688
731	2699	345041522227276
729	2691	345041523089949
720	2665	345041523898679
714	2645	345041524713210
708	2639	345041525553502
706	2641	345041526386969
702	2651	345041527200180
701	2675	345041528036517
697	2700	345041528851677
695	2720	345041529663104
691	2724	345041530492050
685	2712	345041531369014
682	2686	345041532180287
682	2665	345041533036918
679	2649	345041533664980
675	2642	345041534480335
671	2644	345041535286228
670	2661	345041536244576
673	2686	345041537092206
675	2703	345041537949914
674	2709	345041538758779
669	2699	345041539568298
660	2680	345041540375021
653	2649	345041541360298
651	2636	345041542182416
651	2632	345041543044013
650	2633	345041543856222
646	2651	345041544664624
643	2672	345041545501785
636	2690	345041546312131
630	2698	345041547122730
627	2694	345041547957540
618	2674	345041548677014
616	2653	345041549497364
613	2639	345041550335572
614	2637	345041551354767
616	2647	345041552183040
622	2666	345041553021573
624	2685	345041553662571
625	2700	345041554481832
622	2711	345041555310828
617	2709	345041556263597
611	2692	345041557054923
605	2665	345041557920057
599	2654	345041558739906
598	2651	345041559553209
600	2656	345041560355053
599	2671	345041561383590
599	2694	345041562208930
599	2718	345041563066003
599	2729	345041563925031
598	2732	345041564738908
591	2711	345041565579533
589	2687	345041566420182
588	2676	345041567198962
592	2682	345041568058822
602	2705	345041569009150
609	2738	345041569664372
609	2752	345041570500742
605	2762	345041571491518
598	2762	345041572307070
591	2750	345041573145736
586	2720	345041574040690
581	2701	345041574858307
576	2690	345041575467125
574	2685	345041576329089
575	2688	345041577260827
579	2706	345041578120172
581	2723	345041578968762
579	2733	345041579684473
572	2732	345041580521052
566	2728	345041581375111
563	2711	345041582189787
556	2682	345041583051158
558	2662	345041583806912
558	2653	345041584623537
561	2654	345041585453238
565	2672	345041586320297
566	2698	345041587103509
565	2717	345041587936950
562	2728	345041588747334
559	2728	345041589564663
553	2710	345041590390360
548	2679	345041591353012
544	2664	345041592154909
537	2661	345041592886015
536	2666	345041593667713
539	2683	345041594446894
543	2711	345041595261767
542	2732	345041596079421
537	2742	345041596910340
531	2743	345041597714228
526	2731	345041598406144
520	2707	345041599185655
517	2684	345041600020857
515	2676	345041600652658
520	2683	345041601582020
523	2701	345041602367761
524	2724	345041603152090
525	2740	345041603967252
521	2748	345041604671878
517	2749	345041605465791
511	2740	345041606325841
504	2714	345041607161957
499	2688	345041608008820
493	2673	345041608817310
488	2673	345041609648784
491	2679	345041610464642
491	2697	345041611398633
492	2713	345041612238119
491	2722	345041612939378
490	2719	345041613751211
487	2708	345041614562634
481	2691	345041615372125
480	2663	345041616309958
478	2649	345041617175686
476	2640	345041618019995
477	2639	345041618830629
479	2652	345041619639939
482	2671	345041620451413
485	2689	345041621321456
485	2685	345041622174587
484	2671	345041623023942
484	2647	345041623839580
478	2622	345041624678720
472	2594	345041625447770
470	2590	345041626338905
470	2606	345041627177286
473	2634	345041628021794
477	2655	345041628837736
475	2669	345041629679133
470	2657	345041630490374
466	2643	345041631354601
466	2629	345041632164224
468	2603	345041632981249
467	2591	345041633769128
462	2588	345041634607393
464	2594	345041635422835
470	2614	345041636325595
477	2634	345041637193622
482	2643	345041637945647
484	2651	345041638754780
480	2657	345041639583934
475	2641	345041640390655
471	2614	345041641225220
467	2607	345041642198527
467	2611	345041643046501
470	2625	345041643855813
472	2647	345041644659990
471	2664	345041645477944
471	2671	345041646324711
470	2674	345041647179753
467	2666	345041648023198
461	2647	345041648692939
461	2634	345041649525690
462	2618	345041650339537
459	2606	345041651346563
462	2617	345041652184219
472	2653	345041653021969
480	2696	345041653663803
488	2715	345041654508798
495	2720	345041655324215
491	2702	345041656295260
488	2671	345041656941462
482	2652	345041657758049
478	2641	345041658576412
474	2647	345041659399350
473	2667	345041660259138
477	2707	345041660951058
475	2733	345041661805194
470	2745	345041662631233
462	2741	345041663442383
457	2728	345041664275050
452	2700	345041665081170
449	2674	345041665926180
445	2645	345041666783434
439	2626	345041667601898
435	2614	345041668414044
433	2624	345041669199541
436	2647	345041670047218
444	2686	345041670834791
448	2717	345041671670784
450	2732	345041672483218
445	2704	345041673689321
439	2686	345041674534156
435	2678	345041675346576
435	2684	345041676314943
438	2705	345041677176709
439	2724	345041678020149
437	2746	345041678831260
433	2765	345041679661618
429	2775	345041680476891
431	2747	345041681492822
432	2729	345041682328152
435	2701	345041683168592
436	2671	345041683821728
432	2670	345041684655479
435	2691	345041685475597
442	2717	345041686340236
451	2761	345041687138406
455	2793	345041687946803
452	2784	345041688758319
448	2786	345041689595528
447	2766	345041690242378
442	2751	345041691161147
438	2744	345041692026290
434	2736	345041692846785
435	2732	345041693669807
441	2756	345041694501451
453	2783	345041695314975
459	2813	345041696286229
457	2791	345041697146362
451	2773	345041698052310
448	2764	345041698877481
454	2761	345041699710644
466	2739	345041700448840
472	2714	345041701403383
469	2694	345041702142168
464	2705	345041702987236
469	2732	345041703801576
481	2749	345041704641943
483	2750	345041705457797
481	2721	345041706338970
476	2705	345041707181519
473	2689	345041708023032
473	2666	345041708826638
476	2667	345041709661830
479	2674	345041710476859
475	2690	345041711414623
475	2738	345041712248479
481	2767	345041712951510
484	2762	345041713761834
483	2761	345041714569004
480	2752	345041715376415
492	2787	345041716303497
497	2784	345041717166438
498	2780	345041718010030
497	2790	345041718825542
495	2797	345041719634142
497	2798	345041720443582
504	2815	345041721327595
509	2835	345041722191537
507	2813	345041723033871
505	2785	345041723839390
504	2758	345041724680546
499	2747	345041725453221
499	2736	345041726138911
506	2758	345041727002068
510	2785	345041727590001
514	2807	345041728409711
521	2837	345041729245989
525	2861	345041730096274
525	2884	345041731006217
519	2902	345041731700586
518	2900	345041732522977
523	2884	345041733345780
520	2903	345041734194209
520	2915	345041735041165
528	2962	345041735852350
528	3001	345041736710346
527	3028	345041737552048
526	3034	345041738369966
518	3026	345041739202315
512	3006	345041740043723
510	2987	345041740852490
506	2995	345041741704594
502	3001	345041742518791
502	2994	345041743334554
503	2976	345041744181398
501	2945	345041745020340
500	2938	345041745663063
496	2952	345041746340000
490	2968	345041747183339
487	2974	345041748023692
485	2959	345041748704694
487	2936	345041749516994
490	2913	345041750326401
492	2907	345041751361451
501	2937	345041752211697
510	2982	345041753041341
511	2987	345041753835442
513	2964	345041754653074
509	2948	345041755467046
503	2925	345041756349421
512	2911	345041757170976
511	2902	345041758016473
506	2895	345041758834734
505	2883	345041759654519
501	2878	345041760466912
504	2933	345041761418752
517	2972	345041762241360
524	2979	345041762962637
526	2983	345041763787866
524	2983	345041764605934
518	2987	345041765424470
517	2974	345041766339797
514	3028	345041767184878
520	3063	345041768021711
525	3058	345041768826752
531	3052	345041769645178
538	3054	345041770464119
554	3073	345041771333727
559	3090	345041772141781
555	3063	345041772977432
550	3043	345041773662400
545	3030	345041774474199
545	3008	345041775292006
550	3002	345041776266761
547	3030	345041777115197
541	3014	345041777953915
536	3001	345041778642537
531	3013	345041779432187
528	2999	345041780254468
524	2996	345041781171164
536	2991	345041781942222
549	2985	345041782763516
550	2988	345041783596660
549	2995	345041784415783
551	3004	345041785233465
550	3007	345041786099413
546	3040	345041786958563
549	3065	345041787825354
553	3050	345041788658789
558	3027	345041789478375
560	3011	345041790082536
558	2986	345041791018975
552	2979	345041791860344
560	2996	345041792680455
573	2971	345041793533037
582	2952	345041794206745
575	2963	345041795009110
573	2984	345041795844291
568	2996	345041796671936
571	2996	345041797483896
579	2990	345041798364695
589	2979	345041799202430
603	2954	345041800045199
621	2953	345041800873439
646	2966	345041801713808
667	2985	345041802525527
676	3013	345041803348529
679	3035	345041804186971
676	3032	345041804823852
675	3019	345041805645196
674	2992	345041806484457
673	2960	345041807308821
684	2933	345041808150869
688	2930	345041808835896
697	2945	345041809657031
708	2986	345041810505033
714	3039	345041811426853
723	3073	345041812248448
728	3059	345041812966086
732	3040	345041813789291
730	3082	345041814614090
734	3073	345041815444365
727	3063	345041816350902
732	3067	345041817085748
725	3051	345041817938354
722	3027	345041818726166
717	3031	345041819543569
721	3054	345041820377159
726	3048	345041821224512
723	3041	345041822074583
725	3042	345041822896621
722	3054	345041823705173
714	3059	345041824517837
716	3053	345041825355953
719	3059	345041826317551
719	3069	345041827246528
716	3091	345041828111443
710	3132	345041828944079
705	3177	345041829587319
708	3197	345041830416454
719	3175	345041831388074
730	3146	345041832203042
734	3130	345041833068170
732	3100	345041833845577
732	3086	345041834656416
728	3079	345041835488310
720	3067	345041836359000
714	3066	345041837210614
707	3079	345041837961283
707	3082	345041838776623
710	3064	345041839595415
714	3033	345041840422372
711	3018	345041841389596
715	3005	345041842091623
722	2980	345041842995316
718	2964	345041843807918
711	2975	345041844609384
710	2984	345041845443584
706	2986	345041846337065
706	2997	345041847175020
709	2987	345041848004284
716	2967	345041848783069
720	2934	345041849616848
725	2922	345041850461585
735	2917	345041851459357
748	2922	345041852284913
763	2937	345041853128557
773	2950	345041853978916
778	2949	345041854607555
776	2930	345041855443820
772	2905	345041856350636
774	2877	345041857192932
770	2859	345041858055855
773	2839	345041858847884
774	2823	345041859664211
782	2848	345041860480977
819	2874	345041861426094
868	2897	345041862203557
892	2899	345041862973114
897	2882	345041863786449
890	2885	345041864586747
890	2868	345041865411480
897	2848	345041866339587
906	2833	345041867097115
921	2821	345041867946991
938	2808	345041868757659
957	2826	345041869572658
970	2873	345041870401285
984	2899	345041871339174
995	2913	345041872183706
1000	2929	345041873015306
995	2918	345041873662068
989	2893	345041874476150
978	2883	345041875307265
973	2887	345041876147981
975	2907	345041876980617
984	2936	345041877601102
1001	2966	345041878422267
1024	2991	345041879236965
1029	2974	345041880073649
1028	2984	345041880883571
1021	2975	345041881664193
1011	2948	345041882495808
1004	2929	345041883311920
1006	2920	345041884153735
1005	2932	345041885014651
1005	2949	345041885828930
1008	2970	345041886659712
1011	2989	345041887428156
1012	2997	345041888247948
1014	2998	345041889080172
1011	2992	345041889940856
1007	2966	345041890753235
995	2939	345041891583790
988	2926	345041892416287
984	2925	345041893224397
984	2938	345041894070838
986	2959	345041894893657
990	2981	345041895701240
981	3003	345041896346823
971	3021	345041897213730
961	3031	345041898060767
953	3014	345041898868461
947	2989	345041899680362
938	2982	345041900466488
929	3019	345041901273536
936	3014	345041902149302
941	3010	345041902987873
936	3026	345041903799819
926	3043	345041904590183
918	3051	345041905428813
908	3050	345041906360975
896	3031	345041907193974
886	2997	345041908093364
875	2974	345041908847696
866	2962	345041909671635
859	2968	345041910486124
848	2995	345041911434250
837	3024	345041912273662
830	3043	345041912971537
827	3052	345041913663730
829	3051	345041914486022
836	3038	345041915115651
846	3015	345041915955460
859	2986	345041916809632
868	2972	345041917623853
871	2973	345041918435730
868	2995	345041919240336
861	3035	345041920087611
858	3071	345041920897355
851	3094	345041921661725
843	3097	345041922481901
835	3076	345041923296059
825	3041	345041924155510
818	3021	345041924986768
811	3011	345041925801599
809	3009	345041926659164
805	3018	345041927472466
797	3037	345041928284916
791	3061	345041929147209
782	3075	345041929988586
774	3076	345041930804180
765	3066	345041931663869
762	3035	345041932484875
760	3011	345041933298682
759	2992	345041934067643
756	2989	345041934879121
757	2994	345041935689100
756	3016	345041936533399
757	3040	345041937350124
754	3052	345041937983624
748	3055	345041938784659
739	3047	345041939566720
735	3026	345041940344869
732	2989	345041941350902
732	2972	345041942078808
732	2961	345041942855617
731	2957	345041943670042
731	2970	345041944453867
731	2993	345041945238518
731	3011	345041946071313
733	3017	345041946863120
734	3011	345041947646222
734	2994	345041948323974
738	2971	345041949140285
739	2941	345041949947709
739	2921	345041950738345
737	2912	345041951549865
737	2915	345041952336366
732	2936	345041953165145
725	2965	345041954004481
720	2994	345041954602808
721	3005	345041955426875
726	2997	345041956353811
732	2967	345041957194190
732	2940	345041958054363
733	2925	345041958855829
733	2912	345041959669232
730	2900	345041960503363
726	2903	345041961548288
723	2921	345041962370766
720	2942	345041963229130
720	2956	345041964077160
718	2953	345041964893789
711	2929	345041965727576
704	2900	345041966568785
699	2887	345041967381549
690	2886	345041968196748
685	2898	345041969046099
683	2920	345041969866413
676	2938	345041970702658
669	2948	345041971377684
663	2950	345041972228090
658	2941	345041973101867
672	2919	345041973994841
705	2886	345041974809121
735	2869	345041975500042
750	2864	345041976365400
758	2872	345041977197409
754	2893	345041978060531
751	2918	345041978838335
744	2934	345041979574829
741	2942	345041980369243
736	2936	345041981395524
736	2915	345041982185853
732	2886	345041983016304
731	2874	345041983794711
732	2868	345041984576605
743	2875	345041985402784
768	2901	345041986339997
790	2928	345041987131280
809	2951	345041987965159
829	2957	345041988782365
849	2948	345041989604732
859	2920	345041990432801
863	2891	345041991409083
862	2877	345041992122312
856	2873	345041992979931
850	2881	345041993797962
843	2902	345041994612819
840	2928	345041995449668
836	2948	345041996246195
838	2953	345041997084201
839	2949	345041997911925
841	2928	345041998730345
852	2898	345041999547863
866	2881	345042000383887
875	2874	345042001457476
892	2883	345042002284931
908	2907	345042003140749
921	2927	345042003979432
929	2945	345042004613717
923	2952	345042005447212
917	2955	345042006369352
918	2935	345042007210696
926	2905	345042008114614
931	2889	345042008748132
937	2880	345042009563920
952	2881	345042010369871
965	2903	345042011389559
968	2927	345042012208476
967	2946	345042012952344
969	2952	345042013734515
979	2945	345042014521224
990	2924	345042015327457
1001	2895	345042016145246
1012	2878	345042017091236
1015	2864	345042017920342
1009	2861	345042018703162
1005	2870	345042019481783
1006	2886	345042020253185
1003	2899	345042021037224
997	2904	345042021810738
988	2907	345042022639637
979	2891	345042023371851
979	2864	345042024206124
988	2841	345042025065827
1000	2829	345042025873849
1013	2829	345042026703021
1020	2840	345042027485829
1032	2859	345042028296371
1037	2874	345042029122385
1035	2876	345042029978469
1026	2866	345042030796030
1024	2847	345042031642923
1026	2817	345042032470900
1032	2792	345042033285076
1036	2776	345042034138026
1036	2777	345042035005090
1043	2791	345042035823875
1048	2812	345042036577445
1052	2826	345042037229650
1056	2832	345042037992197
1055	2834	345042038801698
1046	2824	345042039629024
1036	2798	345042040415369
1035	2770	345042041420740
1046	2758	345042042116403
1056	2754	345042042924433
1066	2759	345042043733403
1078	2775	345042044567239
1087	2796	345042045383382
1091	2812	345042046234419
1096	2816	345042047101111
1093	2809	345042047918967
1087	2786	345042048734915
1077	2758	345042049570011
1065	2745	345042050384689
1053	2740	345042051407073
1048	2746	345042052241781
1037	2770	345042053132615
1025	2798	345042053955813
1020	2814	345042054611284
1017	2818	345042055421410
1015	2814	345042056361439
1009	2789	345042057205748
1007	2759	345042058101212
1010	2741	345042058735567
1016	2733	345042059567676
1018	2738	345042060382202
1025	2768	345042061441978
1030	2791	345042062289260
1035	2806	345042062987324
1035	2813	345042063806814
1031	2812	345042064636069
1026	2795	345042065431678
1019	2761	345042066363838
1018	2740	345042067112875
1016	2731	345042067955294
1007	2737	345042068772874
995	2761	345042069526245
985	2787	345042070320315
975	2807	345042071199042
972	2811	345042072085093
974	2803	345042072910667
977	2780	345042073662119
977	2752	345042074506446
974	2729	345042075325497
971	2718	345042076181104
975	2722	345042076940954
982	2736	345042077773510
986	2759	345042078568651
982	2776	345042079407086
974	2784	345042080239980
963	2781	345042081157689
957	2766	345042082024067
950	2737	345042082843702
942	2722	345042083660501
940	2717	345042084486004
942	2722	345042085304525
945	2743	345042086163648
950	2772	345042087043404
951	2792	345042087856970
951	2803	345042088679681
952	2801	345042089478115
951	2782	345042090289536
944	2755	345042091190074
934	2741	345042092086569
926	2742	345042092901530
920	2748	345042093715602
916	2766	345042094540544
912	2789	345042095355138
905	2813	345042096240670
897	2822	345042097102630
891	2815	345042097918866
896	2796	345042098727972
903	2766	345042099562890
907	2750	345042100372339
903	2742	345042101525978
893	2759	345042102379962
885	2782	345042103232932
876	2805	345042104077990
874	2823	345042104915811
874	2831	345042105732911
868	2826	345042106564050
865	2803	345042107390817
871	2779	345042108231161
885	2767	345042109072316
893	2764	345042109862897
889	2773	345042110675266
882	2793	345042111513577
872	2813	345042112337672
872	2828	345042112995076
877	2833	345042113805408
889	2828	345042114638660
904	2808	345042115410494
920	2777	345042116377627
938	2762	345042117115288
944	2759	345042117902160
945	2763	345042118717947
950	2779	345042119553680
953	2799	345042120370904
950	2816	345042121244979
942	2817	345042122117050
939	2806	345042122932322
953	2781	345042123746199
972	2752	345042124567234
985	2730	345042125388042
1004	2713	345042126359176
1018	2711	345042127220402
1015	2722	345042128065596
1007	2740	345042128881191
1006	2755	345042129620904
1013	2760	345042130435905
1028	2753	345042131423752
1043	2728	345042132261687
1061	2704	345042133099482
1077	2689	345042133714772
1086	2684	345042134541024
1097	2687	345042135351588
1108	2706	345042136306557
1119	2724	345042137169826
1116	2736	345042137995668
1107	2740	345042138810933
1105	2733	345042139636675
1109	2710	345042140433345
1128	2688	345042141265757
1143	2679	345042142129630
1153	2674	345042142974558
1164	2680	345042143791351
1173	2703	345042144621514
1175	2727	345042145408757
1170	2743	345042146252787
1161	2745	345042147120845
1151	2733	345042147933791
1141	2708	345042148616804
1140	2691	345042149456788
1140	2678	345042150268734
1140	2674	345042151184240
1139	2681	345042152072597
1141	2699	345042152889306
1142	2719	345042153711798
1140	2740	345042154551642
1137	2750	345042155358597
1127	2746	345042156328346
1122	2717	345042157236364
1119	2695	345042158092756
1120	2683	345042158745683
1117	2677	345042159574164
1112	2678	345042160390914
1100	2691	345042161447131
