584	2529	345154444754986
598	2534	345154445535158
610	2550	345154446375218
610	2566	345154447252646
604	2575	345154448066723
598	2581	345154448882099
599	2574	345154449690416
597	2550	345154450507285
593	2529	345154451358458
592	2520	345154452236862
593	2524	345154453053122
598	2541	345154453889618
604	2568	345154454712126
606	2587	345154455551495
602	2588	345154456408162
594	2575	345154457279019
589	2552	345154458104868
586	2526	345154458937261
583	2508	345154459776926
577	2500	345154460602981
576	2506	345154461419146
579	2520	345154462286715
585	2539	345154463110719
594	2553	345154463937682
602	2566	345154464758351
605	2566	345154465588869
601	2556	345154466444847
599	2530	345154467312727
605	2513	345154468126954
611	2512	345154468941840
611	2520	345154469751208
611	2537	345154470563125
609	2556	345154471401609
605	2563	345154472336693
597	2563	345154473162446
594	2558	345154473971581
590	2540	345154474799107
584	2512	345154475626716
578	2487	345154476603352
575	2478	345154477283943
570	2478	345154478109340
564	2476	345154478913622
558	2488	345154479732553
553	2503	345154480555318
550	2514	345154481366113
546	2517	345154482198954
543	2508	345154483009756
538	2484	345154483822225
538	2461	345154484619238
541	2440	345154485432617
542	2430	345154486270898
540	2426	345154487095808
537	2437	345154487797770
540	2454	345154488610889
537	2474	345154489472420
530	2483	345154490314991
526	2482	345154491124369
520	2465	345154491906143
515	2446	345154492716463
516	2440	345154493530340
513	2431	345154494449118
512	2438	345154495289788
508	2455	345154496019902
503	2469	345154496787963
497	2478	345154497617391
493	2478	345154498438555
487	2471	345154499308364
483	2454	345154500136255
479	2432	345154500958929
475	2410	345154501699371
473	2400	345154502544127
468	2394	345154503398871
463	2401	345154504343599
465	2416	345154505177280
463	2434	345154506002266
457	2447	345154506841051
450	2449	345154507672290
452	2433	345154508633780
453	2408	345154509441931
451	2386	345154510174003
450	2378	345154510981538
446	2383	345154511829737
441	2401	345154512644008
438	2425	345154513481576
439	2445	345154514389236
447	2456	345154515206624
454	2446	345154516017255
452	2423	345154516865624
450	2407	345154517687130
446	2392	345154518515612
443	2377	345154519402608
440	2371	345154520261837
440	2378	345154521056484
435	2382	345154521698555
431	2386	345154522535616
426	2394	345154523174146
422	2399	345154524001524
423	2398	345154524816450
429	2379	345154525624886
435	2360	345154526458420
439	2350	345154527270971
435	2358	345154528079834
432	2372	345154528909551
433	2395	345154529717946
439	2412	345154530555978
444	2426	345154531387197
441	2430	345154532211185
435	2419	345154533025050
432	2397	345154533852577
426	2374	345154534691819
421	2358	345154535524659
416	2357	345154536369716
412	2375	345154537246325
408	2395	345154538022336
406	2413	345154538870702
406	2427	345154539697494
408	2432	345154540533547
409	2416	345154541298702
405	2396	345154542141472
405	2377	345154542899451
403	2365	345154543714229
398	2360	345154544576496
393	2364	345154545412067
390	2378	345154546037037
386	2392	345154546871170
382	2410	345154547682532
378	2418	345154548518601
380	2417	345154549360138
393	2397	345154550146890
404	2372	345154550951787
412	2353	345154551896008
416	2342	345154552677677
413	2347	345154553524475
411	2364	345154554409015
411	2377	345154555267825
409	2395	345154556092343
405	2403	345154556777460
401	2405	345154557608272
396	2392	345154558480382
392	2364	345154559335926
390	2344	345154560160055
385	2337	345154560913349
384	2339	345154561756770
382	2354	345154562588579
377	2378	345154563429368
372	2394	345154564363106
368	2407	345154565175850
364	2409	345154566008915
360	2401	345154566843088
358	2378	345154567655807
358	2368	345154568485694
357	2368	345154569287422
360	2375	345154570099660
366	2390	345154570927243
372	2410	345154571756185
376	2431	345154572565041
375	2447	345154573411482
373	2448	345154574255512
373	2424	345154575037804
375	2405	345154575859549
372	2385	345154576651803
371	2370	345154577302313
374	2362	345154578126160
381	2367	345154578950761
387	2386	345154579781233
385	2405	345154580627686
378	2424	345154581493784
380	2440	345154582355451
383	2446	345154583173488
380	2430	345154584002380
377	2407	345154584833430
371	2394	345154585676270
368	2400	345154586658129
365	2429	345154587518905
360	2456	345154588369533
357	2473	345154589202629
353	2483	345154590044490
349	2480	345154590913636
350	2456	345154591759091
354	2439	345154592559275
352	2427	345154593421237
349	2424	345154594272516
346	2428	345154595089500
343	2441	345154595895615
342	2455	345154596727311
340	2465	345154597561391
341	2473	345154598425198
346	2470	345154599273208
350	2457	345154600087309
354	2431	345154600849493
354	2417	345154601686908
350	2407	345154602534650
348	2407	345154603389291
350	2424	345154604203058
352	2449	345154605039031
349	2471	345154605700368
347	2480	345154606534927
343	2480	345154607382488
344	2468	345154608211203
347	2443	345154609031713
350	2422	345154609845469
352	2412	345154610648924
349	2413	345154611615096
346	2430	345154612457521
344	2457	345154613307029
346	2477	345154614117575
347	2488	345154614788016
350	2487	345154615624636
352	2474	345154616466743
347	2449	345154617156786
346	2433	345154617985825
340	2419	345154618799308
337	2417	345154619606262
335	2428	345154620431090
331	2451	345154621276331
334	2471	345154622124048
338	2478	345154622970076
341	2477	345154623798385
336	2464	345154624628692
334	2439	345154625289903
329	2424	345154626116025
327	2413	345154626959059
325	2410	345154627804318
323	2411	345154628630574
321	2428	345154629418114
319	2446	345154630186910
315	2458	345154631005163
313	2464	345154631833936
313	2458	345154632678845
312	2440	345154633518830
311	2416	345154634432997
312	2410	345154635286737
314	2410	345154636108920
316	2416	345154636952006
319	2427	345154637702089
324	2438	345154638549589
325	2459	345154639398963
323	2467	345154640213480
324	2463	345154641042220
322	2444	345154641885715
323	2424	345154642725816
325	2413	345154643547656
324	2405	345154644472030
322	2406	345154645330849
329	2425	345154646040388
338	2451	345154646900328
340	2467	345154647720417
338	2474	345154648545681
341	2462	345154649394744
340	2439	345154650225231
341	2414	345154651033730
342	2400	345154651865822
340	2386	345154652669689
336	2381	345154653510604
333	2401	345154654414470
333	2415	345154655222317
341	2426	345154656057477
347	2428	345154656906484
343	2427	345154657751438
341	2409	345154658543476
336	2384	345154659394420
331	2367	345154660210502
328	2357	345154661033201
328	2359	345154661700934
321	2373	345154662563267
319	2399	345154663395439
316	2415	345154664204934
313	2418	345154665034753
312	2408	345154665848773
313	2394	345154666681180
308	2378	345154667535027
308	2356	345154668341316
307	2347	345154668930856
309	2346	345154669711853
312	2352	345154670535501
316	2366	345154671374960
318	2382	345154672198231
319	2399	345154673014198
318	2407	345154673828140
313	2410	345154674668051
312	2392	345154675507288
314	2371	345154676352422
312	2359	345154677118716
311	2360	345154677948711
309	2364	345154678777344
303	2375	345154679421530
303	2386	345154680355219
302	2400	345154681172082
298	2404	345154681997191
295	2399	345154682810970
290	2385	345154683542543
288	2363	345154684444150
286	2345	345154685283662
285	2329	345154686076037
289	2322	345154686921555
289	2328	345154687667709
287	2345	345154688506811
282	2365	345154689339125
279	2385	345154690047027
277	2392	345154690881621
272	2379	345154691745742
269	2356	345154692573171
265	2343	345154693410647
264	2349	345154694321417
264	2366	345154695160989
265	2383	345154695988773
261	2406	345154696749270
259	2423	345154697580803
261	2432	345154698432558
265	2429	345154699304577
279	2408	345154700129225
290	2384	345154700955800
295	2368	345154701662861
293	2359	345154702627924
297	2356	345154703488358
299	2367	345154704388054
297	2385	345154705207166
296	2404	345154706039891
297	2415	345154706880009
307	2417	345154707706678
326	2404	345154708631697
339	2377	345154709408741
341	2359	345154710260569
345	2347	345154711086326
349	2348	345154711944307
355	2363	345154712670634
351	2383	345154713521135
347	2409	345154714444860
347	2423	345154715281014
348	2420	345154716107340
348	2404	345154716920118
343	2382	345154717700441
340	2368	345154718543687
336	2370	345154719379870
334	2379	345154720189015
331	2385	345154720999709
334	2389	345154721845747
337	2394	345154722642614
338	2399	345154723479373
338	2401	345154724411981
341	2387	345154725174441
344	2364	345154725980219
345	2347	345154726806515
345	2338	345154727616209
341	2338	345154728458463
339	2342	345154729314150
337	2350	345154730128456
337	2358	345154730939987
339	2363	345154731760244
346	2362	345154732593246
361	2350	345154733433270
367	2325	345154734178399
362	2308	345154735008975
359	2289	345154735673092
357	2268	345154736668812
358	2260	345154737493096
365	2275	345154738167645
375	2299	345154739057291
380	2319	345154739799572
382	2329	345154740621773
381	2323	345154741484894
380	2298	345154742362847
376	2279	345154743178349
375	2274	345154743923579
376	2278	345154744726513
376	2289	345154745549387
373	2313	345154746409781
370	2331	345154747235125
365	2346	345154748048676
361	2358	345154748810398
358	2359	345154749622263
353	2340	345154750458766
350	2322	345154751318085
347	2311	345154752151547
350	2311	345154752962306
354	2322	345154753695379
359	2341	345154754426959
357	2361	345154755233734
354	2385	345154756059119
348	2400	345154756675832
345	2408	345154757516259
345	2409	345154758520329
348	2394	345154759394254
353	2375	345154760205979
355	2375	345154761034096
356	2384	345154761699662
354	2404	345154762517238
349	2432	345154763372086
345	2452	345154764182067
340	2464	345154764803143
338	2470	345154765634345
332	2477	345154766476348
329	2456	345154767329593
325	2437	345154768132312
321	2424	345154768928970
318	2426	345154769713089
315	2427	345154770549389
313	2435	345154771388809
318	2447	345154772216475
322	2444	345154773015917
321	2428	345154773699561
316	2413	345154774611786
312	2395	345154775484430
312	2377	345154776342126
312	2351	345154777189495
309	2347	345154778039475
308	2358	345154778870132
305	2382	345154779878042
304	2400	345154780729934
303	2417	345154781690970
303	2421	345154782549605
304	2410	345154783395779
307	2386	345154784220142
303	2374	345154785055340
312	2370	345154785681684
319	2380	345154786657490
320	2401	345154787515826
318	2421	345154788305367
319	2440	345154789107089
321	2451	345154789806654
321	2453	345154790633900
326	2441	345154791472303
333	2417	345154792325853
337	2403	345154793129557
339	2398	345154793858024
341	2394	345154794675804
344	2394	345154795530475
344	2396	345154796371422
341	2393	345154797172552
341	2399	345154797981126
343	2404	345154798792690
343	2401	345154799604129
346	2375	345154800456120
346	2356	345154801433256
344	2339	345154802187615
341	2329	345154803006426
337	2324	345154803843787
335	2340	345154804658509
338	2360	345154805531189
349	2365	345154806384433
352	2358	345154807230299
354	2340	345154808043305
353	2319	345154808847901
352	2302	345154809660858
350	2291	345154810517413
346	2286	345154811356175
352	2292	345154812188182
360	2308	345154812891178
368	2322	345154813705808
388	2342	345154814760521
404	2355	345154815566977
408	2355	345154816415814
406	2337	345154817288086
410	2318	345154818134024
416	2311	345154818942086
419	2312	345154819768786
422	2332	345154820587216
422	2365	345154821311703
419	2390	345154822162383
416	2409	345154823009373
412	2419	345154823836401
409	2418	345154824665449
408	2399	345154825428367
412	2378	345154826289660
422	2365	345154827138854
429	2356	345154827967960
429	2362	345154828797116
425	2384	345154829436897
423	2406	345154830300671
417	2433	345154831113681
415	2452	345154831940348
416	2462	345154832701988
413	2457	345154833544956
422	2432	345154834458200
442	2410	345154835316417
458	2392	345154836112158
466	2390	345154836939884
472	2404	345154837687206
472	2428	345154838570326
471	2450	345154839412597
472	2467	345154840238188
468	2469	345154841054357
464	2459	345154841858226
462	2435	345154842685517
471	2415	345154843532357
498	2408	345154844461680
527	2412	345154845321788
549	2425	345154846060695
553	2440	345154846910069
551	2448	345154847740175
552	2449	345154848575350
555	2438	345154849420408
549	2415	345154850193138
546	2397	345154851018057
544	2390	345154851859650
546	2386	345154852670165
545	2398	345154853509469
541	2423	345154854437936
535	2448	345154855340823
534	2464	345154856151550
537	2456	345154856984534
535	2438	345154857817831
531	2414	345154858634945
529	2403	345154859487618
528	2434	345154860330642
525	2468	345154861137952
517	2473	345154861986603
514	2468	345154862685686
511	2468	345154863543755
512	2466	345154864545940
505	2464	345154865392389
508	2451	345154866238209
516	2431	345154867085235
524	2407	345154867912170
531	2381	345154868734021
538	2359	345154869574267
553	2366	345154870569092
569	2395	345154871434061
580	2427	345154872310111
591	2453	345154873074751
597	2468	345154873698778
592	2471	345154874596805
596	2452	345154875454841
607	2432	345154876290821
628	2422	345154877123989
652	2430	345154877952189
675	2443	345154878764214
703	2445	345154879674306
730	2437	345154880563591
749	2436	345154881414029
755	2437	345154882337908
750	2428	345154883149874
748	2402	345154883979084
747	2376	345154884811974
740	2352	345154885571334
737	2340	345154886430718
739	2359	345154887252236
745	2395	345154888051101
751	2425	345154888861452
754	2440	345154889675653
753	2443	345154890526757
751	2425	345154891367608
743	2444	345154892197321
737	2477	345154893031096
733	2478	345154893699497
728	2460	345154894584856
721	2443	345154895419151
721	2444	345154896071121
721	2454	345154896901232
718	2466	345154897731776
710	2473	345154898539664
702	2469	345154899381946
695	2452	345154900185295
692	2425	345154900992245
691	2408	345154901699539
691	2401	345154902573322
695	2409	345154903409921
693	2428	345154904217594
700	2453	345154904985851
710	2476	345154905810561
725	2497	345154906706507
737	2508	345154907563545
740	2496	345154908359888
734	2475	345154909174169
728	2451	345154909979571
722	2428	345154910570318
718	2417	345154911412595
714	2421	345154912256674
706	2438	345154912934349
700	2460	345154913767805
694	2486	345154914684740
685	2513	345154915541070
677	2527	345154916404288
669	2519	345154917308594
662	2494	345154918145617
657	2480	345154918951379
657	2494	345154919792108
662	2527	345154920618043
672	2560	345154921443353
679	2581	345154922174705
681	2590	345154922996813
679	2584	345154923821611
672	2568	345154924582601
666	2549	345154925449706
658	2523	345154926426913
653	2503	345154927321103
647	2504	345154928135261
645	2512	345154928945141
646	2528	345154929698580
646	2544	345154930567944
649	2559	345154931444483
645	2560	345154932329989
638	2541	345154933162321
632	2520	345154933957783
628	2511	345154934814809
629	2511	345154935554828
627	2518	345154936413224
622	2536	345154937252239
618	2558	345154938066231
613	2578	345154938881078
608	2584	345154939708244
605	2561	345154940548464
609	2542	345154941385994
610	2515	345154942224381
607	2489	345154943052078
601	2481	345154943878448
595	2511	345154944703684
591	2535	345154945543557
588	2547	345154946405685
590	2551	345154947283088
589	2549	345154948070422
591	2544	345154948869816
597	2535	345154949692895
606	2511	345154950544674
607	2482	345154951401647
605	2457	345154952293545
604	2432	345154953126994
604	2421	345154953961436
600	2443	345154954781332
598	2473	345154955610589
598	2502	345154956444302
592	2516	345154957306943
585	2513	345154958118489
578	2492	345154958930034
578	2466	345154959753653
582	2451	345154960569835
589	2452	345154961408509
596	2458	345154962236898
599	2471	345154963050188
604	2482	345154963823233
608	2490	345154964659962
611	2490	345154965500981
618	2481	345154966337955
620	2458	345154967162417
621	2453	345154967973003
621	2465	345154968781779
614	2475	345154969607421
607	2463	345154970470317
607	2459	345154971325832
613	2477	345154972189924
617	2481	345154972997807
619	2462	345154973827701
611	2464	345154974650203
609	2471	345154975506964
608	2472	345154976362421
602	2459	345154977224033
597	2444	345154978055246
600	2427	345154978885534
602	2422	345154979646910
601	2425	345154980501733
598	2434	345154981351599
595	2438	345154982167492
590	2437	345154983003020
585	2429	345154983591094
581	2410	345154984539462
574	2401	345154985411763
573	2401	345154986247862
579	2409	345154987083021
582	2422	345154987700698
582	2435	345154988551109
578	2454	345154989409313
581	2469	345154990237890
580	2481	345154991063890
580	2482	345154991823496
578	2473	345154992653174
584	2449	345154993511038
591	2425	345154994453163
598	2428	345154995305539
612	2452	345154996086369
623	2493	345154996847156
623	2533	345154997678295
617	2545	345154998517977
612	2548	345154999364344
609	2587	345155000173456
603	2614	345155000976046
601	2604	345155001706878
599	2589	345155002330169
596	2599	345155003136181
600	2639	345155003966290
611	2680	345155004590897
617	2710	345155005433681
621	2757	345155006235118
622	2799	345155007044157
621	2818	345155007835093
615	2809	345155008584803
609	2789	345155009426795
603	2761	345155010239806
597	2737	345155011040962
598	2723	345155011889955
598	2725	345155012703785
596	2729	345155013572782
590	2734	345155014496540
586	2735	345155015387328
581	2727	345155016216428
576	2708	345155017059148
577	2683	345155017877556
581	2668	345155018683361
591	2676	345155019522408
599	2705	345155020362529
606	2748	345155021094152
608	2781	345155021949868
607	2811	345155022764069
600	2818	345155023588271
595	2798	345155024490583
588	2796	345155025209635
587	2781	345155026055393
581	2755	345155026904871
574	2752	345155027732201
573	2779	345155028592108
571	2805	345155029335357
566	2816	345155030167905
560	2830	345155030995759
558	2844	345155031837636
556	2839	345155032665810
552	2835	345155033518751
550	2815	345155034451415
549	2784	345155035306680
551	2766	345155036127340
555	2771	345155036959316
559	2802	345155037709235
559	2829	345155038689357
555	2850	345155039551005
549	2873	345155040397217
547	2883	345155041221405
549	2878	345155042062899
544	2856	345155042876843
542	2829	345155043681106
542	2806	345155044580532
550	2805	345155045410886
557	2806	345155046083107
560	2818	345155046899250
557	2818	345155047710605
555	2797	345155048537275
549	2768	345155049382909
542	2738	345155050193849
536	2711	345155051021193
531	2716	345155051848458
530	2729	345155052655794
528	2708	345155053512099
531	2681	345155054335690
542	2678	345155055164895
552	2720	345155055985210
547	2750	345155056699560
542	2761	345155057557398
536	2766	345155058430623
530	2763	345155059254999
523	2738	345155060082851
524	2717	345155060832423
529	2716	345155061736055
537	2728	345155062596038
550	2769	345155063463386
555	2830	345155064421575
551	2875	345155065232089
550	2875	345155066065811
543	2873	345155066837058
538	2875	345155067649304
532	2852	345155068499053
533	2852	345155069204089
543	2866	345155070033086
556	2891	345155070879429
563	2909	345155071730046
562	2927	345155072586041
557	2946	345155073355934
559	2956	345155074183957
564	2951	345155075018933
571	2923	345155075861916
581	2900	345155076789233
591	2867	345155077621493
603	2846	345155078488667
611	2853	345155079335447
618	2885	345155080345640
619	2937	345155081107732
612	2952	345155081927278
611	2929	345155082743624
614	2923	345155083467642
617	2911	345155084375082
614	2877	345155085202561
609	2852	345155086008318
609	2858	345155086842048
609	2876	345155087655256
610	2892	345155088506543
608	2899	345155089339374
603	2882	345155090176931
598	2870	345155091022895
594	2846	345155091842634
598	2836	345155092671091
610	2834	345155093518383
610	2815	345155094557799
602	2793	345155095425032
596	2796	345155096268393
589	2811	345155097100203
584	2827	345155097922429
578	2829	345155098746852
571	2811	345155099577517
567	2780	345155100215390
565	2758	345155101044288
559	2727	345155101700254
554	2708	345155102544704
548	2711	345155103376849
542	2734	345155104184960
536	2758	345155105005526
531	2781	345155105836246
528	2798	345155106711422
525	2792	345155107547454
526	2769	345155108422842
533	2736	345155109235285
540	2723	345155110070816
540	2726	345155110919195
543	2767	345155111747131
545	2795	345155112602198
540	2776	345155113439233
541	2753	345155114173366
543	2744	345155115011116
546	2743	345155115864497
547	2731	345155116707800
546	2715	345155117569241
540	2689	345155118422311
534	2677	345155119244736
531	2679	345155120072474
536	2694	345155120906558
542	2706	345155121700139
557	2702	345155122561896
569	2693	345155123410533
575	2682	345155124228625
574	2665	345155125051564
571	2635	345155125861560
569	2607	345155126742528
575	2587	345155127582632
589	2580	345155128431227
608	2586	345155129242930
628	2601	345155130033659
652	2608	345155130841532
681	2609	345155131728412
707	2595	345155132570290
720	2570	345155133430877
718	2558	345155134244951
713	2552	345155135062666
705	2552	345155135868092
707	2559	345155136732437
713	2568	345155137572405
716	2576	345155138449841
709	2576	345155139276594
705	2578	345155140099484
708	2588	345155140946840
705	2595	345155141792845
697	2576	345155142622771
691	2563	345155143469863
683	2547	345155144397433
682	2539	345155145198321
678	2553	345155145971425
672	2582	345155146814343
664	2642	345155147635489
657	2693	345155148492414
651	2718	345155149337589
649	2709	345155150173194
650	2689	345155151032858
645	2664	345155151877658
639	2646	345155152515564
637	2645	345155153356540
636	2658	345155154172592
628	2679	345155154993158
625	2701	345155155794288
623	2711	345155156730385
625	2707	345155157559753
621	2701	345155158419468
618	2687	345155159226941
613	2663	345155160037584
615	2640	345155160863338
617	2635	345155161735570
622	2650	345155162573092
627	2686	345155163484489
624	2725	345155164455171
617	2747	345155165263384
611	2736	345155166090414
608	2717	345155166847793
605	2691	345155167676066
605	2677	345155168521626
601	2686	345155169215597
599	2702	345155170043575
597	2726	345155170889143
595	2754	345155171744356
590	2781	345155172602358
584	2803	345155173364153
579	2813	345155174189588
578	2797	345155175027760
576	2769	345155175869412
579	2764	345155176599926
578	2766	345155177445931
582	2764	345155178279858
590	2790	345155179104014
596	2852	345155179929765
594	2888	345155180742181
589	2866	345155181728989
588	2835	345155182571870
586	2804	345155183430961
583	2784	345155184239213
577	2780	345155185055245
578	2777	345155185698290
575	2750	345155186666303
576	2726	345155187475351
580	2729	345155188295500
579	2758	345155189075331
576	2793	345155189696986
575	2809	345155190520876
569	2795	345155191325277
569	2765	345155192123604
569	2738	345155192855267
563	2713	345155193638272
559	2702	345155194502922
552	2717	345155195345414
550	2738	345155195943637
552	2753	345155196760417
550	2775	345155197618065
546	2804	345155198471788
542	2821	345155199326372
541	2827	345155200169793
536	2824	345155200998657
529	2807	345155201847762
526	2784	345155202669006
530	2776	345155203515559
535	2785	345155204348991
537	2811	345155205112608
535	2831	345155205925081
529	2844	345155206856289
524	2852	345155207687108
519	2840	345155208638901
515	2813	345155209492837
510	2792	345155210338863
509	2781	345155211131634
505	2790	345155211945057
500	2807	345155212696730
495	2815	345155213524497
492	2819	345155214425247
487	2817	345155215224913
481	2806	345155216023246
482	2789	345155216831255
484	2772	345155217647517
482	2746	345155218472731
483	2739	345155219288076
488	2741	345155220102238
493	2737	345155220900206
490	2737	345155221707635
485	2752	345155222511616
481	2780	345155223321965
483	2795	345155224102199
481	2788	345155224908667
475	2763	345155225723922
472	2752	345155226692742
468	2749	345155227518635
463	2741	345155228370226
459	2744	345155229181563
457	2767	345155230011130
452	2791	345155230823297
451	2805	345155231736016
452	2802	345155232592952
453	2775	345155233434378
455	2752	345155234244783
463	2740	345155235055884
470	2731	345155235888493
478	2727	345155236725206
483	2703	345155237594954
485	2684	345155238450423
484	2687	345155239274470
482	2697	345155240094678
477	2724	345155240924772
477	2733	345155241769834
486	2713	345155242625256
500	2709	345155243479278
512	2697	345155244292514
524	2672	345155245128986
534	2676	345155245942941
535	2694	345155246772771
532	2696	345155247602773
529	2680	345155248440940
530	2661	345155249253418
535	2672	345155250101286
532	2699	345155250927662
532	2680	345155251735984
540	2661	345155252552986
545	2647	345155253366574
544	2647	345155254164828
543	2648	345155254977236
538	2641	345155255768463
531	2632	345155256710278
526	2631	345155257557490
525	2612	345155258386468
525	2597	345155259182774
521	2575	345155259997632
516	2551	345155260808725
508	2534	345155261716035
509	2541	345155262675096
510	2553	345155263509026
508	2561	345155264436473
503	2548	345155265266979
497	2522	345155266097026
491	2503	345155266860407
485	2514	345155267701992
479	2528	345155268553784
475	2527	345155269225645
473	2516	345155270072074
468	2533	345155270900409
466	2522	345155271750045
464	2508	345155272596469
461	2493	345155273455326
456	2466	345155274281120
455	2478	345155275129975
458	2516	345155275958420
457	2537	345155276794554
455	2522	345155277622427
454	2536	345155278464609
452	2558	345155279273385
447	2590	345155280095839
443	2629	345155280897883
439	2660	345155281746696
433	2682	345155282605194
431	2682	345155283450798
427	2662	345155284255947
422	2632	345155285064125
417	2605	345155285699437
420	2597	345155286541534
425	2613	345155287417242
425	2644	345155288225937
421	2675	345155289034923
424	2686	345155289737454
420	2679	345155290573880
417	2667	345155291416181
412	2643	345155292275269
408	2613	345155293046441
404	2604	345155293707507
399	2599	345155294604503
395	2583	345155295443153
395	2576	345155296248158
392	2564	345155297099876
393	2562	345155297913429
393	2574	345155298727592
390	2594	345155299580357
387	2592	345155300419591
387	2572	345155301226199
385	2545	345155301986932
391	2522	345155302798506
392	2506	345155303611166
393	2502	345155304359608
398	2507	345155305172279
407	2556	345155306004749
415	2598	345155306844733
423	2603	345155307671907
420	2577	345155308396198
423	2556	345155309162604
430	2531	345155309990668
430	2508	345155310612033
431	2489	345155311482329
436	2474	345155312353639
438	2476	345155313185540
433	2485	345155314008800
435	2485	345155314739662
438	2486	345155315595400
437	2495	345155316471633
437	2512	345155317358944
441	2528	345155318190728
451	2511	345155318908967
461	2511	345155319723916
470	2510	345155320561781
474	2531	345155321423931
472	2576	345155322257993
469	2608	345155323074919
473	2622	345155323898909
485	2612	345155324714493
494	2586	345155325552770
498	2564	345155326422261
494	2543	345155327240515
499	2522	345155328052289
502	2509	345155328862059
497	2490	345155329673164
492	2476	345155330512598
490	2497	345155331363719
485	2554	345155332193321
479	2636	345155333027262
477	2687	345155333699173
478	2694	345155334618965
484	2674	345155335475759
501	2666	345155336343890
527	2696	345155337190876
550	2735	345155338022731
564	2755	345155338870156
571	2757	345155339695188
579	2743	345155340551368
582	2733	345155341313730
578	2719	345155342162558
585	2694	345155342989989
605	2666	345155343833631
622	2643	345155344679816
650	2626	345155345538943
681	2640	345155346357941
714	2648	345155347180736
739	2630	345155348003252
755	2607	345155348765043
762	2587	345155349604101
758	2562	345155350447320
752	2537	345155351274118
743	2517	345155352104637
739	2496	345155352913703
739	2479	345155353700273
733	2455	345155354618838
727	2433	345155355438145
720	2416	345155356265519
724	2438	345155357096295
735	2465	345155357909094
746	2462	345155358496856
754	2457	345155359303059
762	2443	345155360109676
758	2425	345155360954093
750	2420	345155361700510
747	2438	345155362558139
747	2469	345155363426240
743	2486	345155364249387
734	2502	345155364983821
729	2509	345155365843639
727	2499	345155366775705
725	2492	345155367633189
725	2474	345155368482538
729	2473	345155369305795
738	2458	345155370134214
751	2442	345155370981555
763	2456	345155371827628
769	2476	345155372657002
767	2496	345155373382536
767	2517	345155374209459
762	2525	345155375042128
761	2513	345155375871706
762	2499	345155376769603
764	2475	345155377613243
780	2457	345155378519721
803	2441	345155379350959
826	2430	345155380175185
850	2424	345155380937594
876	2424	345155381785893
910	2457	345155382634348
926	2524	345155383496899
922	2554	345155384412726
924	2523	345155385255817
933	2504	345155386078304
951	2535	345155386920642
968	2584	345155387619824
978	2622	345155388486733
977	2640	345155389295175
970	2624	345155389988932
961	2604	345155390820528
948	2573	345155391752483
937	2555	345155392589202
931	2540	345155393417327
928	2528	345155394226559
922	2515	345155395040568
915	2512	345155395870287
907	2509	345155396704805
900	2493	345155397555035
897	2484	345155398382483
892	2473	345155399196789
884	2448	345155400007837
877	2429	345155400832015
867	2411	345155401753031
866	2411	345155402571600
870	2459	345155403504097
867	2482	345155404377874
861	2468	345155405189271
866	2490	345155405983481
868	2492	345155406817524
862	2484	345155407628852
854	2491	345155408429047
848	2489	345155409242443
841	2466	345155410052101
835	2454	345155410874971
828	2455	345155411737771
826	2480	345155412577499
821	2522	345155413426642
818	2569	345155414253620
816	2606	345155415077075
807	2628	345155415907679
802	2624	345155416787357
802	2599	345155417644961
800	2583	345155418494149
797	2592	345155419342678
791	2609	345155420168960
782	2641	345155421012896
776	2697	345155421859285
772	2731	345155422690083
764	2754	345155423541177
760	2774	345155424468138
756	2750	345155425134233
763	2741	345155425975926
775	2773	345155426823030
782	2814	345155427647541
779	2799	345155428519322
797	2774	345155429360738
806	2775	345155430163901
806	2809	345155431000769
811	2815	345155431826431
811	2804	345155432637587
803	2790	345155433489918
794	2765	345155434301411
789	2738	345155435114958
783	2711	345155435914543
776	2706	345155436744606
769	2712	345155437583689
759	2733	345155438437290
752	2758	345155439243740
744	2781	345155440049391
738	2798	345155440873051
729	2803	345155441700846
721	2806	345155442544135
715	2792	345155443424395
705	2770	345155444254945
697	2742	345155445073387
698	2733	345155445887162
712	2790	345155446809187
725	2836	345155447633211
733	2878	345155448433083
740	2879	345155449235667
752	2895	345155450047683
754	2914	345155450870822
749	2904	345155451744277
743	2883	345155452582899
737	2856	345155453430244
732	2837	345155454245804
725	2846	345155455064468
720	2827	345155455870172
718	2828	345155456739527
719	2822	345155457571979
717	2813	345155458427844
710	2797	345155459257230
716	2802	345155460085366
718	2799	345155460847611
711	2802	345155461785198
704	2814	345155462629995
697	2837	345155463498786
690	2853	345155464418207
688	2855	345155465219711
694	2837	345155466065661
700	2810	345155466881415
706	2799	345155467709447
707	2795	345155468554327
704	2808	345155469396101
699	2838	345155470221529
696	2910	345155471004550
694	2981	345155471846919
685	3024	345155472673709
681	3034	345155473511099
687	3039	345155474416632
709	3019	345155475127690
728	3034	345155475955787
737	3042	345155476787370
738	3045	345155477627228
747	3059	345155478484095
745	3054	345155479285658
737	3082	345155480068919
731	3143	345155480875669
721	3214	345155481716664
712	3258	345155482559061
708	3261	345155483411331
709	3233	345155484117070
710	3208	345155484753064
712	3196	345155485603954
716	3193	345155486586722
717	3195	345155487318065
718	3226	345155488012305
715	3260	345155488822558
708	3288	345155489656549
697	3305	345155490527370
691	3312	345155491383511
689	3303	345155492227383
694	3288	345155493074993
699	3266	345155493904079
700	3242	345155494736463
706	3226	345155495584866
710	3224	345155496439644
703	3229	345155497284278
702	3237	345155498131588
705	3241	345155498964595
705	3226	345155499791471
697	3212	345155500637961
690	3193	345155501467869
684	3168	345155502300276
685	3186	345155503143142
685	3214	345155503968045
680	3212	345155504802786
678	3188	345155505649695
671	3200	345155506446575
668	3207	345155507273582
663	3199	345155508090400
662	3175	345155508910682
661	3185	345155509699387
655	3214	345155510570881
647	3246	345155511430164
638	3282	345155512272721
631	3313	345155513096572
626	3337	345155513922996
621	3344	345155514766088
612	3329	345155515624492
606	3299	345155516468928
606	3267	345155517275790
606	3256	345155518107285
601	3256	345155518924473
598	3272	345155519734325
593	3299	345155520561003
588	3325	345155521404458
585	3347	345155522222389
593	3373	345155523016192
612	3386	345155523824392
626	3364	345155524692101
627	3343	345155525528118
622	3342	345155526174356
620	3337	345155527008047
621	3306	345155527840926
618	3287	345155528652186
615	3296	345155529521878
617	3337	345155530392398
614	3356	345155531224202
609	3371	345155532080729
611	3398	345155532926823
606	3411	345155533520474
602	3406	345155534447021
597	3375	345155535269357
593	3358	345155536095608
589	3334	345155536939155
585	3311	345155537640355
584	3305	345155538496432
578	3309	345155539320159
574	3312	345155540140327
570	3319	345155540972449
569	3315	345155541766649
565	3296	345155542749297
560	3267	345155543594237
552	3233	345155544502910
546	3212	345155545366738
542	3212	345155546013596
539	3221	345155546846863
534	3234	345155547649874
527	3230	345155548471116
523	3217	345155549279728
522	3185	345155550108825
516	3164	345155550922961
512	3161	345155551772808
514	3144	345155552604859
519	3146	345155553445625
522	3171	345155554256857
519	3182	345155555084800
513	3172	345155555846134
509	3184	345155556776716
517	3169	345155557632797
516	3145	345155558475070
510	3117	345155559254198
510	3113	345155560058912
506	3138	345155560869962
503	3161	345155561780882
502	3157	345155562639127
504	3185	345155563534049
506	3243	345155564469713
500	3272	345155565296747
496	3269	345155566125770
492	3244	345155566763077
488	3216	345155567632524
482	3178	345155568538015
477	3156	345155569366674
477	3161	345155570197711
482	3184	345155571008748
485	3211	345155571854268
481	3239	345155572676183
473	3270	345155573507065
468	3288	345155574432420
461	3278	345155575142826
459	3274	345155575974442
454	3278	345155576848039
450	3260	345155577669798
452	3244	345155578527367
463	3294	345155579266334
478	3341	345155580109277
497	3393	345155580938831
513	3482	345155581698645
523	3529	345155582581371
523	3500	345155583405819
524	3483	345155584203288
537	3475	345155585003255
552	3478	345155585788610
563	3476	345155586729664
563	3467	345155587559346
563	3454	345155588366249
565	3441	345155589021621
562	3422	345155589740022
555	3404	345155590547112
550	3385	345155591359938
545	3360	345155592177803
538	3331	345155592963125
532	3297	345155593744902
526	3269	345155594624132
521	3257	345155595433139
517	3257	345155595992397
521	3259	345155596813494
524	3260	345155597713919
527	3250	345155598670585
527	3224	345155599530016
527	3224	345155600394782
521	3245	345155601222956
519	3237	345155602088224
516	3231	345155602913619
512	3242	345155603750525
522	3211	345155604658441
526	3181	345155605496095
520	3167	345155606328523
518	3166	345155607182773
518	3166	345155608012274
519	3146	345155608844256
513	3133	345155609699041
510	3150	345155610520328
509	3163	345155611371985
510	3194	345155612213388
508	3189	345155612887104
510	3174	345155613704097
513	3173	345155614690690
510	3198	345155615516868
507	3225	345155616341952
502	3227	345155617171063
500	3205	345155617990450
499	3174	345155618799910
505	3152	345155619642780
520	3155	345155620481901
533	3175	345155621263812
540	3201	345155622115481
544	3229	345155622925975
543	3247	345155623704427
538	3260	345155624572983
535	3267	345155625439666
538	3270	345155626237613
546	3260	345155627070042
569	3237	345155627846406
594	3220	345155628622274
617	3205	345155629239069
633	3215	345155630017167
645	3223	345155630795511
654	3253	345155631747596
654	3245	345155632536191
659	3235	345155633289987
663	3267	345155634086206
660	3323	345155634869561
660	3329	345155635494928
672	3314	345155636327043
692	3340	345155637164477
705	3359	345155637976805
705	3355	345155638779657
698	3344	345155639609952
691	3334	345155640455727
681	3300	345155641309552
677	3265	345155642162262
671	3232	345155642988825
664	3199	345155643810926
657	3175	345155644717605
651	3167	345155645557470
651	3174	345155646432620
655	3185	345155647276234
656	3187	345155648029381
650	3177	345155648873690
642	3147	345155649703335
636	3114	345155650555975
630	3096	345155651428420
621	3098	345155652273067
618	3108	345155653106956
617	3129	345155653935223
624	3179	345155654837493
625	3252	345155655710980
619	3300	345155656406158
615	3310	345155657235062
611	3339	345155658050439
606	3345	345155658859933
606	3324	345155659665950
603	3346	345155660500528
610	3425	345155661255349
625	3542	345155662091088
636	3636	345155662912475
633	3678	345155663739785
632	3690	345155664636646
629	3691	345155665449891
625	3680	345155666257383
621	3655	345155667090115
614	3622	345155667898262
614	3586	345155668740299
623	3574	345155669604443
640	3588	345155670464287
657	3604	345155671287804
667	3614	345155672132857
670	3617	345155672960527
673	3614	345155673699934
676	3618	345155674631909
674	3606	345155675499125
668	3575	345155676343332
668	3537	345155677169768
677	3502	345155677983195
695	3480	345155678788741
723	3462	345155679627371
751	3447	345155680514246
769	3429	345155681403172
779	3417	345155682255936
791	3402	345155683090099
796	3385	345155683895865
796	3386	345155684717809
790	3369	345155685530492
790	3405	345155686385571
787	3448	345155687216666
798	3469	345155688026874
813	3462	345155688864977
821	3434	345155689677152
819	3405	345155690515557
813	3376	345155691319474
806	3344	345155692149714
799	3312	345155692961702
796	3294	345155693700270
794	3266	345155694608569
789	3251	345155695450942
782	3257	345155696026415
775	3279	345155696859286
772	3313	345155697694891
762	3311	345155698566979
754	3331	345155699421502
750	3347	345155700152492
743	3322	345155700991250
742	3316	345155701701510
742	3309	345155702560486
740	3297	345155703431312
739	3304	345155704256756
740	3324	345155705091620
738	3351	345155705916399
730	3383	345155706811817
721	3418	345155707668811
712	3446	345155708482195
709	3461	345155709311985
710	3480	345155710153011
708	3475	345155710983185
707	3485	345155711816172
719	3576	345155712655230
732	3652	345155713510274
742	3683	345155714322774
752	3712	345155715143185
748	3718	345155715947660
744	3696	345155716788744
746	3672	345155717632635
746	3636	345155718453608
740	3638	345155719256262
740	3645	345155720066033
739	3615	345155720891703
732	3603	345155721699627
733	3600	345155722544671
738	3597	345155723345472
753	3593	345155724171741
774	3580	345155724988047
788	3557	345155725815607
789	3523	345155726785563
783	3483	345155727592461
775	3453	345155728445737
773	3435	345155729254286
777	3435	345155730065334
785	3441	345155730872319
797	3451	345155731795342
804	3443	345155732637491
811	3414	345155733413322
818	3392	345155734215447
826	3379	345155735030404
834	3372	345155735836434
829	3387	345155736756817
821	3392	345155737602271
820	3375	345155738453156
820	3386	345155739277344
817	3411	345155740103188
813	3409	345155740951572
818	3385	345155741783233
817	3361	345155742637792
815	3343	345155743852914
822	3303	345155744975074
831	3281	345155745699102
829	3273	345155746559320
822	3294	345155747423891
826	3330	345155748032633
830	3364	345155748864574
845	3392	345155749677577
854	3376	345155750512801
857	3361	345155751315230
855	3369	345155752149020
851	3370	345155752962640
849	3362	345155753814756
844	3340	345155754729386
838	3309	345155755585217
834	3274	345155756408125
822	3244	345155757223919
813	3232	345155758037338
805	3232	345155758852936
798	3229	345155759663007
793	3210	345155760501202
785	3180	345155761326829
775	3144	345155762167329
773	3129	345155762980157
776	3137	345155763810970
781	3138	345155764659126
783	3137	345155765558330
784	3164	345155766541016
782	3168	345155767426651
797	3146	345155768238332
802	3143	345155768916987
800	3124	345155769727682
792	3139	345155770564666
783	3132	345155771422813
776	3213	345155772258956
784	3336	345155773030623
793	3393	345155773699362
797	3404	345155774645988
791	3377	345155775513534
788	3375	345155776348407
790	3388	345155777172795
788	3398	345155778049381
782	3419	345155778849645
775	3439	345155779663487
767	3461	345155780470333
758	3479	345155781298111
758	3495	345155782146344
759	3510	345155782979595
762	3509	345155783789647
765	3474	345155784711576
766	3447	345155785539090
763	3442	345155786411223
756	3463	345155787259667
747	3503	345155788086203
741	3552	345155788939620
741	3588	345155789676681
744	3616	345155790533072
751	3641	345155791350401
758	3663	345155792196640
764	3655	345155793020889
775	3631	345155793867623
785	3635	345155794733827
789	3610	345155795588650
794	3626	345155796459256
792	3716	345155797297921
786	3807	345155798040930
779	3821	345155798862400
770	3811	345155799675813
760	3785	345155800510336
752	3763	345155801329561
753	3733	345155802162780
767	3725	345155802977568
771	3724	345155803777665
768	3702	345155804666825
760	3682	345155805501501
752	3686	345155806332590
745	3705	345155807182215
737	3706	345155808010964
730	3689	345155808833428
719	3666	345155809685056
711	3634	345155810526663
703	3593	345155811321895
697	3560	345155812160372
690	3524	345155812973621
689	3491	345155813699689
686	3454	345155814606096
683	3417	345155815456397
678	3393	345155816262977
676	3387	345155817094421
674	3359	345155817913812
677	3352	345155818742461
681	3326	345155819578005
675	3300	345155820404490
675	3286	345155821162876
674	3273	345155821997300
670	3245	345155822825121
666	3209	345155823673677
660	3173	345155824605024
659	3150	345155825466543
654	3117	345155826311999
656	3091	345155827164591
658	3059	345155827991864
658	3039	345155828751915
651	3048	345155829582576
643	3063	345155830530790
644	3061	345155831359636
667	3034	345155832188792
692	3003	345155832999491
704	3012	345155833698162
715	3016	345155834610235
724	2989	345155835447898
719	2960	345155836269035
712	2940	345155837100482
707	2961	345155837912142
702	2988	345155838730906
711	3003	345155839587007
736	3012	345155840440076
760	3027	345155841258439
778	3038	345155842104018
796	3041	345155842932447
819	3028	345155843777160
857	2999	345155844690062
886	3016	345155845523980
895	3038	345155846318257
886	3029	345155847161620
877	3016	345155847998601
877	3010	345155848843946
873	3022	345155849689010
871	3013	345155850540092
871	2986	345155851413644
865	2953	345155852180435
863	2935	345155853001006
865	2944	345155853811869
861	2976	345155854713428
851	3022	345155855555052
842	3061	345155856420200
835	3065	345155857259533
827	3059	345155858077609
817	3038	345155858882601
810	3016	345155859693522
800	3045	345155860532937
798	3074	345155861361311
794	3106	345155862199006
790	3122	345155863013569
793	3112	345155863844335
796	3093	345155864681340
791	3073	345155865534492
785	3059	345155866353472
777	3038	345155867193445
769	3013	345155868027126
766	3014	345155868873273
760	2998	345155869699418
754	3011	345155870554444
747	3026	345155871398959
740	3066	345155872245112
737	3115	345155873047151
733	3140	345155873886238
732	3121	345155874745342
738	3107	345155875589691
738	3100	345155876465312
732	3104	345155877183270
725	3085	345155878012622
719	3053	345155878854859
713	3045	345155879695669
708	3045	345155880554113
702	3034	345155881425503
694	3028	345155882260829
690	3057	345155883073112
689	3082	345155883875840
682	3071	345155884712483
677	3055	345155885551395
682	3052	345155886401410
688	3056	345155887233702
694	3066	345155888043002
692	3046	345155888867064
693	3028	345155889679506
698	3035	345155890516830
693	3048	345155891310714
692	3066	345155892167133
693	3066	345155892982229
698	3050	345155893820118
708	3066	345155894716937
722	3102	345155895580507
744	3161	345155896458224
755	3199	345155897304819
750	3204	345155898051344
742	3182	345155898894179
743	3180	345155899720624
748	3165	345155900574479
751	3150	345155901429159
752	3132	345155902177279
745	3113	345155902993394
745	3095	345155903813184
747	3080	345155904717978
756	3080	345155905583835
768	3075	345155906426691
784	3064	345155907241230
796	3042	345155908071239
802	3024	345155908884856
802	3039	345155909702060
797	3044	345155910544150
789	3039	345155911365201
788	3038	345155912177690
787	3035	345155913011420
781	3015	345155913860606
774	3039	345155914679918
775	3061	345155915536510
773	3081	345155916325308
776	3081	345155917044297
788	3054	345155917853152
809	3031	345155918686840
829	3040	345155919521643
831	3024	345155920329548
824	3042	345155920887756
819	3071	345155921815152
811	3076	345155922655047
804	3057	345155923531809
798	3063	345155924358008
788	3086	345155925190675
780	3095	345155926030053
771	3124	345155926952162
764	3149	345155927784855
755	3137	345155928654218
747	3111	345155929307660
740	3098	345155930141625
732	3096	345155930969715
726	3091	345155931838998
720	3072	345155932696033
714	3050	345155933424851
712	3031	345155934256543
715	3029	345155935115290
711	3024	345155935943326
705	3028	345155936847216
698	3029	345155937555372
693	3030	345155938405713
686	3039	345155939218420
679	3060	345155940030534
674	3086	345155940868010
666	3078	345155941804716
663	3062	345155942647831
656	3066	345155943482325
658	3054	345155944290103
660	3033	345155945104457
660	3019	345155945715103
661	2997	345155946561155
659	2963	345155947416198
652	2932	345155948053476
647	2912	345155948868420
641	2892	345155949689515
635	2884	345155950521832
630	2855	345155951350530
630	2829	345155952180401
635	2820	345155953026717
641	2822	345155953699414
647	2824	345155954625817
660	2826	345155955473299
672	2815	345155956305318
687	2817	345155957140989
691	2824	345155957965044
684	2806	345155958789050
677	2797	345155959644572
669	2866	345155960520285
667	2906	345155961347601
664	2924	345155962206173
657	2943	345155963061428
652	2933	345155963890201
652	2932	345155964691940
652	2936	345155965452861
646	2939	345155966265224
639	2932	345155967097289
635	2915	345155967921704
627	2889	345155968738277
632	2860	345155969576549
652	2843	345155970378296
686	2846	345155971187999
715	2868	345155972018931
732	2890	345155972845167
739	2902	345155973682557
735	2907	345155974631710
728	2898	345155975544349
729	2872	345155976357005
737	2840	345155977195646
747	2811	345155978022063
760	2789	345155978831303
774	2774	345155979687112
796	2765	345155980539848
813	2761	345155981311609
826	2738	345155982167131
839	2723	345155982991210
848	2725	345155983816029
846	2732	345155984789436
840	2733	345155985562577
834	2723	345155986419297
828	2735	345155987271105
820	2741	345155988018826
821	2745	345155988837638
814	2789	345155989680358
805	2818	345155990654748
797	2821	345155991509309
789	2830	345155992337793
786	2803	345155993166180
783	2789	345155993780438
775	2790	345155994704307
766	2800	345155995556539
759	2822	345155996381277
755	2851	345155997214643
746	2858	345155998063571
746	2859	345155998894175
753	2842	345155999725344
759	2811	345156000600960
758	2787	345156001430602
756	2767	345156002192031
757	2767	345156003034692
752	2765	345156003861583
743	2755	345156004747479
736	2761	345156005621710
733	2756	345156006312772
726	2745	345156007134467
722	2718	345156007962471
716	2689	345156008688484
713	2666	345156009547949
722	2646	345156010420091
731	2622	345156011243924
732	2594	345156012089524
725	2570	345156012914590
718	2563	345156013745846
708	2551	345156014672963
702	2535	345156015586669
704	2539	345156016429497
708	2526	345156017259111
710	2527	345156018091301
710	2526	345156018816689
706	2521	345156019654352
705	2517	345156020488111
701	2591	345156021300397
701	2650	345156022148857
700	2638	345156022997245
708	2631	345156023825842
711	2604	345156024741152
704	2596	345156025622101
696	2583	345156026482887
694	2568	345156027191632
691	2551	345156028034783
687	2534	345156028864860
681	2533	345156029710949
673	2537	345156030588007
666	2526	345156031318766
660	2502	345156032167576
653	2474	345156032928104
649	2454	345156033753350
647	2441	345156034672353
642	2436	345156035549836
637	2441	345156036359787
631	2443	345156037190723
626	2454	345156037993418
627	2481	345156038807814
626	2505	345156039643486
620	2508	345156040492201
612	2481	345156041290004
605	2463	345156042126636
606	2452	345156042958001
609	2427	345156043769164
609	2407	345156044666294
607	2394	345156045581382
617	2372	345156046385973
628	2350	345156047238883
627	2356	345156048065367
622	2392	345156048885927
624	2421	345156049721867
623	2424	345156050592661
618	2400	345156051430787
618	2374	345156052192891
621	2355	345156052931100
633	2336	345156053720534
648	2338	345156054628137
656	2359	345156055489758
661	2381	345156056300404
663	2397	345156057125019
667	2399	345156057950800
663	2381	345156058761097
660	2355	345156059568841
657	2341	345156060425570
654	2325	345156061238430
648	2304	345156062051081
643	2298	345156062856026
635	2323	345156063692757
632	2363	345156064618379
627	2380	345156065490327
622	2384	345156066320696
617	2395	345156067162888
614	2378	345156068008519
606	2383	345156068839429
600	2406	345156069698038
595	2423	345156070595199
594	2425	345156071440296
592	2433	345156072279038
591	2451	345156073094179
584	2454	345156073699968
580	2465	345156074607345
577	2473	345156075492660
577	2478	345156076323253
571	2463	345156077163257
564	2476	345156078008914
558	2528	345156078825126
553	2574	345156079661741
550	2604	345156080526081
542	2639	345156081334711
536	2655	345156082178325
533	2666	345156082987659
530	2674	345156083792167
525	2659	345156084707393
521	2634	345156085560678
518	2613	345156086373953
512	2609	345156087174951
507	2622	345156087982886
502	2647	345156088803313
503	2689	345156089644953
503	2730	345156090497366
498	2735	345156091306908
496	2714	345156092137058
497	2694	345156092988211
496	2664	345156093699970
492	2649	345156094628106
486	2661	345156095472109
483	2688	345156096272374
482	2720	345156097126390
476	2745	345156097985095
470	2751	345156098817350
465	2748	345156099671378
460	2726	345156100516944
455	2704	345156101357265
450	2702	345156102203641
445	2714	345156103061344
438	2718	345156103890711
434	2715	345156104778356
428	2717	345156105655115
427	2725	345156106326785
426	2730	345156107155154
422	2711	345156107965154
420	2703	345156108690808
418	2689	345156109536459
413	2692	345156110364347
414	2676	345156111180193
417	2671	345156112010096
414	2661	345156112835548
413	2631	345156113676881
408	2605	345156114559070
404	2576	345156115390245
400	2550	345156116212097
397	2530	345156116824861
392	2512	345156117682550
390	2488	345156118580756
392	2479	345156119437004
390	2457	345156120255639
390	2436	345156120951171
394	2408	345156121853421
400	2384	345156122704515
399	2372	345156123535548
398	2369	345156124346284
405	2390	345156125073958
410	2391	345156125701368
413	2397	345156126554818
415	2415	345156127449749
416	2426	345156128262258
426	2434	345156129072804
430	2421	345156129880932
430	2413	345156130742680
427	2394	345156131582379
431	2379	345156132449734
433	2360	345156133255020
433	2341	345156134068103
438	2338	345156134910075
438	2323	345156135579007
437	2315	345156136399076
434	2304	345156137237984
438	2355	345156138037466
447	2449	345156138868514
447	2526	345156139701438
450	2587	345156140556460
451	2625	345156141387355
449	2620	345156142258528
445	2599	345156143087235
442	2591	345156143829253
440	2587	345156144751071
435	2600	345156145610617
439	2634	345156146468865
450	2730	345156147333989
457	2834	345156148078816
454	2895	345156148896165
451	2946	345156149711986
448	2977	345156150546328
445	2969	345156151355513
444	2938	345156152204024
450	2913	345156153018466
460	2909	345156153701019
465	2924	345156154604478
471	2948	345156155445213
473	2976	345156156270536
472	3000	345156157030792
468	3009	345156157846204
462	2998	345156158792882
461	2974	345156159666364
461	2947	345156160454056
460	2918	345156161265363
455	2907	345156162094647
454	2898	345156162928775
462	2886	345156163757777
478	2866	345156164696602
494	2864	345156165556504
510	2857	345156166176282
517	2852	345156167016500
513	2892	345156167838381
508	2921	345156168708857
502	2928	345156169578980
496	2939	345156170405589
502	2938	345156171226982
523	2909	345156172090676
538	2887	345156172917387
536	2860	345156173700619
531	2857	345156174623947
531	2856	345156175484764
527	2847	345156176306750
523	2844	345156177164670
523	2845	345156177981550
522	2837	345156178792879
518	2811	345156179594963
514	2790	345156180400428
509	2799	345156181169532
507	2807	345156181990244
502	2805	345156182803661
500	2787	345156183455705
498	2770	345156184285328
495	2743	345156185102198
490	2722	345156185897696
484	2690	345156186843847
482	2664	345156187579952
480	2651	345156188388941
479	2654	345156189224215
480	2684	345156190038896
476	2701	345156190872453
472	2700	345156191705763
467	2697	345156192563897
461	2680	345156193395535
457	2652	345156194233061
458	2638	345156195053169
460	2639	345156195863238
463	2638	345156196842982
459	2639	345156197675488
454	2630	345156198514570
448	2603	345156199342108
443	2583	345156200087426
438	2578	345156200902882
433	2560	345156201837244
430	2573	345156202674216
430	2583	345156203510560
435	2588	345156204216326
443	2604	345156205054416
447	2600	345156205887729
447	2567	345156206833401
458	2545	345156207852800
463	2537	345156208772964
462	2530	345156209614070
460	2528	345156210434334
456	2523	345156211232107
451	2519	345156212066563
446	2521	345156212814640
440	2528	345156213642091
435	2537	345156214636414
430	2546	345156215482980
428	2547	345156216277692
430	2531	345156217111240
433	2514	345156217912018
435	2515	345156218702809
437	2540	345156219560632
431	2579	345156220371907
426	2625	345156221185234
423	2674	345156222042260
420	2712	345156222858224
420	2736	345156223694685
421	2731	345156224598031
430	2704	345156225410170
435	2698	345156226225500
432	2692	345156227076372
432	2694	345156227869266
433	2679	345156228704404
431	2696	345156229534830
433	2728	345156230341953
439	2770	345156231151458
451	2838	345156231991333
463	2908	345156232825340
467	2949	345156233461489
469	2966	345156234304942
474	3000	345156235210103
472	3022	345156236019015
467	3005	345156236881086
464	2974	345156237585651
463	2968	345156238438566
462	2976	345156239285576
461	2991	345156240111749
460	3000	345156240943206
455	3002	345156241717507
451	2996	345156242572960
446	2981	345156243397553
440	2953	345156244197956
436	2927	345156245018178
436	2898	345156245833348
429	2868	345156246830070
425	2850	345156247688920
422	2827	345156248545640
420	2797	345156249399379
417	2780	345156250094776
414	2805	345156250923709
408	2823	345156251855661
406	2829	345156252695247
412	2853	345156253531166
421	2871	345156254215648
428	2900	345156255049137
429	2903	345156255840342
437	2924	345156256811751
447	2931	345156257670924
450	2938	345156258465985
448	2967	345156259309289
457	2994	345156260136457
472	3014	345156260924938
484	3047	345156261869348
485	3061	345156262589688
494	3054	345156263402131
498	3049	345156264224911
495	3053	345156265024132
491	3050	345156265699831
489	3043	345156266580659
487	3018	345156267454447
489	2993	345156268280543
493	2979	345156269111250
498	2977	345156269939042
500	2987	345156270858459
495	3016	345156271860384
500	3040	345156272718428
504	3055	345156273577164
504	3059	345156274529904
502	3050	345156275350123
504	3032	345156276165377
502	3006	345156276927450
497	2975	345156277755522
492	2943	345156278610836
492	2923	345156279474366
497	2913	345156280286655
502	2907	345156281099319
510	2905	345156281926359
525	2916	345156282745517
539	2932	345156283465138
549	2941	345156284290735
552	2929	345156285106156
548	2926	345156285700086
544	2926	345156286565293
546	2923	345156287397813
551	2928	345156288210411
560	2948	345156289039367
560	2940	345156289733031
558	2935	345156290590457
553	2925	345156291460746
547	2897	345156292311830
543	2887	345156293141573
540	2866	345156293969291
534	2842	345156294802863
535	2845	345156295660105
538	2892	345156296536536
538	2926	345156297390211
532	2934	345156298230917
528	2911	345156299074840
524	2894	345156299904400
522	2900	345156300742101
521	2909	345156301617093
521	2909	345156302496361
521	2912	345156303309377
517	2924	345156304120482
512	2921	345156304939142
509	2906	345156305755712
508	2902	345156306612906
505	2870	345156307486870
508	2838	345156308300208
508	2813	345156309061089
503	2799	345156309867839
504	2789	345156310733146
502	2780	345156311593583
501	2789	345156312421032
513	2811	345156313233424
522	2816	345156314040986
519	2795	345156314722695
516	2768	345156315563036
516	2744	345156316390056
510	2727	345156317209638
507	2733	345156318044188
501	2719	345156318845699
500	2715	345156319705919
494	2715	345156320560659
494	2760	345156321409219
505	2825	345156322258070
513	2872	345156322969538
517	2886	345156323798196
515	2887	345156324715876
508	2899	345156325574793
505	2898	345156326423451
502	2878	345156327223430
496	2853	345156328041071
492	2844	345156328849299
487	2844	345156329686909
483	2861	345156330532314
478	2909	345156331347705
477	2966	345156332197173
473	3028	345156333023888
471	3074	345156333699294
470	3102	345156334630643
470	3101	345156335470857
470	3081	345156336309172
470	3051	345156337157427
468	3034	345156337987534
464	3032	345156338834480
464	3035	345156339674219
466	3048	345156340523311
473	3060	345156341339779
477	3055	345156342197493
477	3033	345156343037169
479	3009	345156343848574
483	2990	345156344756154
478	2997	345156345601672
475	2997	345156346408154
475	2996	345156347241520
477	2980	345156347983940
475	2950	345156348745412
477	2920	345156349586087
479	2891	345156350389510
480	2878	345156351226901
483	2888	345156352058019
480	2881	345156352871787
474	2887	345156353703676
478	2926	345156354617268
483	2976	345156355426992
485	3013	345156356254905
478	3027	345156357088402
475	3025	345156357900521
473	2998	345156358729518
473	2980	345156359588590
465	2981	345156360412384
463	3017	345156361254108
466	3080	345156362099035
471	3155	345156362931192
469	3217	345156363773924
473	3253	345156364598482
474	3271	345156365427252
470	3272	345156366266024
464	3241	345156367110203
461	3214	345156367939029
463	3198	345156368794212
464	3187	345156369649121
470	3207	345156370554274
474	3254	345156371357920
478	3296	345156372202576
482	3302	345156372976188
483	3294	345156373699556
481	3306	345156374628948
478	3297	345156375482565
484	3277	345156376326557
488	3256	345156377104223
484	3239	345156377928825
485	3211	345156378748825
493	3187	345156379602929
496	3177	345156380466901
493	3165	345156381272109
487	3179	345156382118648
487	3224	345156382962848
487	3274	345156383786695
486	3318	345156384705693
481	3312	345156385481425
482	3284	345156386326295
480	3264	345156387168486
477	3263	345156387985619
472	3254	345156388817554
471	3234	345156389613718
468	3235	345156390423058
466	3246	345156391229772
465	3250	345156392059656
464	3236	345156392870841
464	3202	345156393700111
461	3180	345156394614897
464	3171	345156395425369
467	3156	345156396248833
466	3137	345156397079780
461	3129	345156397912146
456	3118	345156398754976
450	3095	345156399610719
446	3078	345156400458918
445	3057	345156401314011
441	3039	345156402108016
440	3041	345156402925666
441	3055	345156403739978
437	3048	345156404653866
438	3030	345156405461332
445	3008	345156406301583
460	2979	345156407133958
473	2953	345156407947661
476	2922	345156408848909
471	2893	345156409693290
469	2887	345156410485295
469	2880	345156411314986
470	2883	345156412139775
467	2887	345156412960771
462	2868	345156413699662
458	2855	345156414599554
463	2877	345156415466437
472	2908	345156416289011
467	2908	345156417138389
463	2879	345156417972268
463	2845	345156418819194
460	2841	345156419672822
457	2876	345156420578610
459	2956	345156421396828
463	3038	345156422235115
469	3095	345156422982136
477	3130	345156423773374
486	3138	345156424683375
490	3110	345156425529021
486	3120	345156426359390
482	3130	345156427107351
479	3113	345156427914767
476	3091	345156428675573
471	3096	345156429540790
466	3135	345156430369983
469	3202	345156431220920
473	3264	345156432061393
482	3345	345156432896362
493	3373	345156433761484
514	3343	345156434685465
521	3326	345156435482210
517	3335	345156436321259
512	3357	345156437163863
507	3378	345156437977583
504	3417	345156438878762
506	3445	345156439617480
501	3442	345156440465570
500	3419	345156441290857
500	3392	345156442134218
496	3383	345156442964911
496	3360	345156443799387
498	3328	345156444702260
493	3300	345156445526407
488	3310	345156446367447
488	3343	345156447198857
486	3392	345156447984145
480	3431	345156448810499
477	3451	345156449649475
472	3435	345156450534489
464	3416	345156451382054
462	3428	345156452117372
459	3439	345156452951139
457	3450	345156453699382
457	3475	345156454624975
460	3513	345156455478741
460	3525	345156456324355
465	3539	345156457172302
472	3549	345156458004220
473	3539	345156458811273
471	3511	345156459645708
478	3543	345156460453500
485	3600	345156461219549
487	3652	345156462056837
489	3700	345156462866054
490	3742	345156463720057
491	3770	345156464617885
488	3770	345156465426658
484	3760	345156466193274
482	3761	345156467029497
476	3737	345156467845626
471	3712	345156468703069
470	3721	345156469548539
473	3748	345156470364656
471	3763	345156471173283
466	3786	345156472021350
462	3804	345156472847715
465	3785	345156473720339
468	3736	345156474686866
467	3724	345156475534166
469	3701	345156476366435
470	3673	345156477111327
464	3678	345156477702039
461	3670	345156478563049
455	3636	345156479249658
456	3613	345156480060245
457	3579	345156480892044
453	3570	345156481806721
452	3572	345156482647229
448	3592	345156483396580
443	3606	345156484205383
440	3581	345156485019248
447	3577	345156485699451
451	3584	345156486564722
453	3587	345156487410160
460	3612	345156488254099
462	3650	345156489084258
460	3657	345156489912697
458	3622	345156490766619
461	3589	345156491628575
465	3566	345156492502320
463	3542	345156493327633
459	3545	345156494156131
456	3547	345156495015641
458	3541	345156495864089
453	3544	345156496849558
449	3549	345156497691556
446	3564	345156498547725
442	3582	345156499374458
439	3597	345156500122439
434	3583	345156500968393
428	3541	345156501904154
424	3518	345156502763963
421	3508	345156503643405
421	3502	345156504565276
415	3526	345156505401692
417	3547	345156506244509
425	3558	345156507093401
434	3562	345156507922603
451	3555	345156508862870
462	3540	345156509700437
467	3507	345156510494636
470	3487	345156511332959
480	3472	345156512179598
494	3463	345156512859025
498	3459	345156513728499
494	3456	345156514617818
494	3458	345156515421263
492	3433	345156516228187
492	3432	345156517062197
493	3457	345156517871082
493	3473	345156518729468
493	3449	345156519569367
492	3419	345156520375685
488	3399	345156521179145
489	3387	345156522008859
486	3382	345156522824059
480	3372	345156523679120
478	3345	345156524587302
474	3342	345156525380511
470	3382	345156526212484
466	3416	345156527043376
467	3429	345156527879798
469	3440	345156528641917
470	3459	345156529511260
465	3484	345156530338821
461	3506	345156531188944
460	3534	345156532035135
459	3532	345156532865966
460	3506	345156533717174
478	3473	345156534644842
496	3458	345156535491990
509	3460	345156536334430
509	3471	345156537175900
503	3503	345156538007831
501	3554	345156538853173
498	3597	345156539617840
504	3630	345156540442594
509	3675	345156541280036
517	3719	345156542118633
532	3734	345156542931021
549	3701	345156543764369
578	3683	345156544671134
595	3669	345156545513170
612	3661	345156546116757
618	3646	345156546947806
630	3675	345156547752055
634	3782	345156548614656
631	3865	345156549426931
628	3887	345156550122908
623	3884	345156550972173
618	3852	345156551895836
616	3807	345156552736380
609	3764	345156553500248
602	3736	345156554247000
598	3730	345156555065097
594	3735	345156555915095
587	3732	345156556902339
584	3726	345156557762088
581	3708	345156558619135
579	3682	345156559444612
576	3644	345156560270410
573	3616	345156561030541
569	3599	345156561914450
562	3595	345156562628259
556	3589	345156563501280
551	3566	345156564330192
547	3530	345156565159703
546	3508	345156565949176
543	3502	345156566747711
539	3501	345156567605869
534	3501	345156568446516
528	3490	345156569125838
524	3484	345156569942135
523	3477	345156570767813
524	3477	345156571610218
522	3483	345156572445499
516	3472	345156573297105
512	3440	345156574130065
515	3422	345156574965265
520	3436	345156575809544
513	3439	345156576850710
506	3456	345156577683204
506	3509	345156578561139
508	3552	345156579254369
504	3549	345156580077689
508	3548	345156580905622
517	3581	345156581822448
522	3580	345156582683669
517	3565	345156583373350
511	3544	345156584185983
509	3515	345156585000279
509	3504	345156585699792
507	3505	345156586545350
500	3523	345156587379525
495	3541	345156588204036
492	3551	345156589091671
492	3563	345156589906477
489	3578	345156590738364
495	3572	345156591595364
503	3552	345156592429452
501	3535	345156593236233
505	3533	345156594000480
507	3548	345156594822132
503	3554	345156595677277
504	3529	345156596514603
507	3516	345156597357268
517	3525	345156598002756
525	3521	345156598833408
534	3508	345156599692646
538	3475	345156600585038
533	3462	345156601413969
528	3482	345156602127652
523	3488	345156602969965
519	3481	345156603799372
516	3478	345156604725630
512	3458	345156605605285
508	3424	345156606252709
507	3407	345156607106899
501	3379	345156607916215
496	3354	345156608910441
501	3327	345156609756672
501	3290	345156610503878
497	3258	345156611336540
492	3230	345156612181605
489	3220	345156613035317
490	3221	345156613700207
493	3221	345156614623957
491	3208	345156615517284
487	3180	345156616359638
485	3151	345156616994487
484	3137	345156617847171
480	3154	345156618706454
477	3190	345156619566823
470	3233	345156620385608
468	3284	345156621210779
470	3321	345156622058505
469	3345	345156622913025
468	3410	345156623767321
477	3441	345156624691447
489	3411	345156625536402
489	3392	345156626353401
483	3410	345156627130596
480	3442	345156627961491
485	3524	345156628777306
497	3622	345156629665098
507	3700	345156630545728
512	3784	345156631255226
514	3833	345156632104020
510	3859	345156632864968
506	3858	345156633721415
504	3824	345156634655363
505	3782	345156635502966
508	3767	345156636334798
509	3785	345156637155852
506	3815	345156638012914
503	3850	345156638847311
497	3883	345156639639041
494	3921	345156640488695
494	3962	345156641299203
494	3981	345156641999062
496	3995	345156642836270
497	3982	345156643673534
493	3952	345156644577192
486	3910	345156645391930
482	3898	345156646204149
485	3921	345156647037285
483	3935	345156647867446
483	3939	345156648702418
490	3945	345156649551725
492	3956	345156650354014
494	3992	345156651163642
502	4035	345156651814774
507	4021	345156652655231
504	3989	345156653517251
503	3969	345156654257369
498	3970	345156655107893
494	3969	345156655941477
487	3965	345156656773325
483	3962	345156657657081
482	3957	345156658383370
480	3939	345156659210112
476	3896	345156660031569
474	3868	345156660859180
478	3831	345156661718157
478	3786	345156662507860
474	3767	345156663317173
470	3779	345156664118159
466	3817	345156664946147
466	3823	345156665699664
471	3792	345156666561953
469	3774	345156667403951
463	3753	345156668257123
461	3747	345156669070086
460	3761	345156669707840
456	3768	345156670547751
452	3779	345156671324850
447	3800	345156672152239
449	3820	345156672965969
455	3811	345156673781230
461	3771	345156674710183
460	3776	345156675557848
458	3818	345156676369227
452	3830	345156677126955
449	3837	345156677718452
446	3824	345156678612993
447	3791	345156679265496
444	3775	345156680095836
439	3773	345156680869776
435	3794	345156681708284
430	3794	345156682571274
425	3769	345156683383166
420	3733	345156684211762
417	3697	345156685031012
416	3682	345156685698920
415	3687	345156686565074
414	3692	345156687398395
413	3688	345156688210200
423	3678	345156688972676
436	3675	345156689644991
447	3666	345156690452341
457	3627	345156691287116
455	3594	345156692115815
449	3558	345156692932044
445	3530	345156693700618
441	3502	345156694635862
437	3460	345156695465272
441	3428	345156696306492
449	3403	345156697140862
458	3380	345156697971574
465	3348	345156698813761
470	3319	345156699672860
478	3288	345156700495417
484	3251	345156701345291
490	3225	345156702145237
491	3240	345156702980643
486	3229	345156703804371
489	3245	345156704731056
495	3276	345156705596667
490	3325	345156706263215
486	3352	345156706954877
481	3369	345156707800396
474	3358	345156708814288
468	3329	345156709645855
464	3328	345156710459034
463	3370	345156711281336
471	3419	345156712116105
477	3434	345156712926353
475	3435	345156713700357
470	3424	345156714615234
470	3390	345156715433846
472	3357	345156716240727
478	3330	345156717072390
486	3305	345156717889993
480	3277	345156718745122
475	3252	345156719596163
470	3222	345156720398225
465	3200	345156721214246
466	3193	345156722069358
468	3192	345156722904938
465	3183	345156723775756
470	3150	345156724700686
474	3132	345156725561492
473	3135	345156726411484
469	3141	345156727109143
467	3147	345156727910939
464	3143	345156728642942
461	3134	345156729253686
455	3119	345156730051384
450	3100	345156730870907
446	3081	345156731701256
443	3055	345156732551095
440	3029	345156733346957
434	3002	345156734153628
431	2994	345156734955431
431	3002	345156735763642
437	3031	345156736581439
441	3050	345156737390828
441	3087	345156738190947
439	3124	345156738975486
440	3150	345156739612867
440	3145	345156740414154
435	3120	345156741219489
430	3088	345156742072106
430	3067	345156742894943
432	3077	345156743751786
432	3098	345156744676588
437	3130	345156745538835
437	3159	345156746340326
440	3190	345156747182468
435	3194	345156748012320
431	3186	345156748843371
425	3170	345156749695005
420	3137	345156750555426
415	3104	345156751427508
411	3086	345156752139840
407	3083	345156752901018
403	3079	345156753739037
405	3068	345156754647524
405	3062	345156755520017
408	3057	345156756266447
407	3054	345156757100044
405	3050	345156757927772
406	3048	345156758773570
408	3022	345156759613265
406	3010	345156760440281
405	3004	345156761255937
404	2978	345156762088824
401	2953	345156762897386
402	2945	345156763761524
406	2938	345156764645237
408	2921	345156765517959
405	2900	345156766346437
401	2903	345156767186656
397	2882	345156767986633
395	2853	345156768742686
395	2828	345156769627084
396	2806	345156770406609
392	2793	345156771184498
391	2786	345156771993479
391	2774	345156772840421
391	2745	345156773678350
392	2719	345156774688422
394	2690	345156775562565
399	2661	345156776371819
401	2635	345156777142945
396	2614	345156777996213
393	2598	345156778831698
392	2580	345156779688890
388	2586	345156780570207
385	2610	345156781289649
380	2620	345156782140004
378	2625	345156782967097
376	2635	345156783802783
376	2629	345156784727445
372	2606	345156785526207
373	2588	345156786188289
373	2585	345156787037110
373	2589	345156787863927
369	2615	345156788729934
364	2642	345156789594922
360	2672	345156790436420
354	2692	345156791263698
351	2695	345156792099419
347	2677	345156792935328
344	2659	345156793703042
343	2653	345156794609114
344	2647	345156795421815
339	2643	345156796235250
337	2664	345156797072953
340	2682	345156797898791
346	2677	345156798742230
350	2649	345156799580536
346	2628	345156800389161
345	2607	345156801202975
347	2605	345156802037689
346	2617	345156802865677
345	2636	345156803705510
343	2630	345156804602690
344	2632	345156805434309
346	2680	345156806270981
344	2749	345156807085866
343	2794	345156807915239
345	2783	345156808869976
345	2792	345156809747252
344	2797	345156810405233
342	2794	345156811232425
341	2783	345156812079606
337	2787	345156812903557
333	2802	345156813699574
330	2841	345156814632870
336	2896	345156815511190
338	2920	345156816341190
344	2939	345156817174303
346	2934	345156818025966
345	2913	345156818813213
353	2888	345156819659712
353	2861	345156820470769
352	2832	345156821284299
360	2828	345156822104570
363	2875	345156822904378
358	2935	345156823751409
357	2966	345156824661197
359	2981	345156825475348
355	2978	345156826293019
353	2962	345156827135353
351	2950	345156827965476
352	2932	345156828791689
352	2907	345156829628136
348	2902	345156830466955
345	2902	345156831277397
349	2900	345156832108105
348	2916	345156832869002
343	2945	345156833737133
340	2926	345156834710604
335	2904	345156835652307
337	2873	345156836518761
337	2840	345156837376187
336	2810	345156838223278
332	2797	345156839054450
331	2790	345156839660570
328	2787	345156840532905
326	2772	345156841365851
322	2753	345156842212672
318	2748	345156843055268
314	2740	345156843787229
312	2721	345156844708851
309	2697	345156845588353
310	2712	345156846386422
317	2769	345156847229982
319	2817	345156847915466
319	2856	345156848744731
318	2887	345156849586014
317	2894	345156850416019
314	2879	345156851227562
310	2856	345156852059059
309	2831	345156852890671
312	2849	345156853733013
308	2892	345156854631438
305	2965	345156855464225
306	3018	345156856272507
302	3050	345156857104545
302	3044	345156857699750
301	3022	345156858407009
297	2998	345156859215812
295	2973	345156860047743
292	2950	345156860842206
295	2931	345156861709323
297	2942	345156862533744
297	2963	345156863361764
295	3011	345156864190023
291	3050	345156865041730
288	3071	345156865700870
284	3076	345156866569912
281	3071	345156867446355
276	3053	345156868278554
279	3029	345156869114744
285	3003	345156869965920
290	2990	345156870813087
294	3010	345156871800802
297	3033	345156872662438
305	3057	345156873523038
306	3077	345156874176080
303	3089	345156875028006
300	3094	345156875844928
307	3066	345156876692538
312	3033	345156877552754
318	3004	345156878367446
328	2980	345156879161933
332	2960	345156879990419
335	2935	345156880830645
337	2916	345156881676434
345	2896	345156882554791
353	2877	345156883369001
363	2851	345156884185107
375	2845	345156885003664
387	2847	345156885698801
385	2823	345156886661371
386	2790	345156887531047
383	2763	345156888365265
389	2756	345156889190379
398	2757	345156890001668
399	2744	345156890887710
402	2719	345156891641455
406	2705	345156892531069
407	2699	345156893366864
402	2678	345156894200151
399	2672	345156895051355
401	2678	345156895881516
398	2678	345156896740561
395	2702	345156897502736
392	2724	345156898330369
386	2717	345156899164325
383	2690	345156900013839
382	2678	345156900844125
377	2686	345156901706700
372	2692	345156902577031
368	2708	345156903406464
366	2739	345156904157852
365	2766	345156904990806
367	2787	345156905699850
362	2808	345156906547601
359	2829	345156907405538
356	2826	345156908225744
362	2820	345156909038555
369	2793	345156909849858
374	2786	345156910686134
371	2814	345156911522766
368	2861	345156912377973
368	2905	345156913194966
383	2946	345156914008419
396	2985	345156914911943
394	3000	345156915754321
395	3017	345156916595039
397	3029	345156917443440
394	3005	345156918281925
393	2995	345156919110554
397	3001	345156919936251
401	3027	345156920768162
400	3045	345156921627848
399	3074	345156922482847
394	3118	345156923311162
390	3150	345156924143370
386	3162	345156925006079
383	3161	345156925842047
378	3138	345156926703161
372	3130	345156927575498
369	3107	345156928400089
366	3076	345156929164176
366	3058	345156929979746
366	3082	345156930857268
361	3104	345156931845658
360	3079	345156932716641
359	3049	345156933416284
358	3029	345156934232224
358	3025	345156935045041
356	3022	345156935847876
361	2994	345156936682725
367	2976	345156937542343
369	2959	345156938355408
365	2937	345156939166907
368	2934	345156939973626
371	2941	345156940802559
375	2927	345156941646553
383	2914	345156942494630
395	2916	345156943337600
398	2901	345156944166060
402	2888	345156945018809
402	2889	345156945825348
401	2908	345156946699905
399	2936	345156947531973
397	2971	345156948344718
395	2972	345156949156090
395	2949	345156949983444
395	2916	345156950804746
395	2883	345156951650470
390	2855	345156952476900
389	2870	345156953291821
390	2919	345156954103483
398	2975	345156954938736
404	3040	345156955773329
404	3092	345156956615713
401	3109	345156957440439
399	3106	345156958227718
394	3097	345156959037509
389	3066	345156959842813
391	3040	345156960657657
394	3017	345156961488148
400	3017	345156962353120
408	3043	345156963183951
420	3099	345156964013737
427	3138	345156964664828
425	3138	345156965490787
421	3135	345156966318724
417	3138	345156967184827
414	3121	345156968017656
412	3098	345156968791206
407	3077	345156969661931
404	3051	345156970490311
408	3041	345156971311375
407	3047	345156972184575
407	3060	345156972917832
410	3042	345156973774985
413	3016	345156974686050
411	3004	345156975481719
406	2973	345156976294571
401	2944	345156977145154
398	2915	345156977928628
400	2886	345156978771012
399	2859	345156979605885
395	2831	345156980416080
400	2809	345156981238315
409	2790	345156982085520
410	2779	345156982899687
406	2771	345156983738720
405	2751	345156984662399
399	2722	345156985599623
398	2709	345156986438562
394	2700	345156987282029
392	2682	345156988114745
389	2657	345156988949117
385	2648	345156989694728
383	2650	345156990537046
380	2654	345156991351554
378	2662	345156992180481
372	2662	345156992998469
370	2647	345156993805235
368	2642	345156994730582
368	2639	345156995572882
372	2707	345156996381743
376	2746	345156997242970
372	2728	345156997940434
366	2732	345156998890563
365	2758	345156999726736
362	2741	345157000533071
361	2734	345157001347282
359	2720	345157002064986
357	2705	345157002899417
360	2700	345157003758603
358	2691	345157004680873
351	2687	345157005546649
350	2669	345157006315141
345	2650	345157007174683
344	2625	345157008003224
349	2634	345157008927644
346	2618	345157009808715
344	2598	345157010456432
343	2580	345157011282620
340	2568	345157012122462
340	2569	345157012951767
339	2574	345157013706048
339	2583	345157014556231
335	2590	345157015398318
331	2587	345157016217580
328	2561	345157016939606
326	2542	345157017787180
323	2532	345157018630916
323	2540	345157019459852
323	2537	345157020277446
322	2545	345157021094226
323	2594	345157021960801
324	2663	345157022803301
323	2712	345157023641424
321	2735	345157024448660
319	2720	345157025076252
319	2698	345157025890297
327	2696	345157026748569
333	2695	345157027575261
335	2678	345157028384645
333	2691	345157029189727
342	2715	345157030023805
353	2764	345157030875808
363	2879	345157031752097
364	2965	345157032631868
365	3006	345157033325130
363	3014	345157034094198
360	3001	345157034928819
356	2979	345157035786222
353	2958	345157036663727
349	2931	345157037543966
346	2944	345157038375987
344	2961	345157039201093
339	2968	345157040008052
336	2985	345157040840343
333	3002	345157041676317
328	3006	345157042551478
324	3008	345157043378118
322	2987	345157044188603
320	2996	345157045009198
319	2993	345157045801264
319	2989	345157046656945
319	2992	345157047494248
317	2969	345157048307646
314	2951	345157049141670
315	2955	345157049928674
313	2942	345157050771005
314	2912	345157051778691
320	2883	345157052649297
322	2876	345157053485038
325	2883	345157054176109
324	2891	345157055027859
322	2910	345157055829811
320	2948	345157056549892
316	2962	345157057408572
315	2950	345157058229629
314	2926	345157059055591
316	2903	345157059864906
313	2895	345157060703062
311	2902	345157061563298
307	2909	345157062404515
307	2919	345157063217235
308	2946	345157064024397
307	2962	345157064827682
304	2949	345157065669373
299	2925	345157066499215
296	2900	345157067334887
294	2883	345157068145937
290	2860	345157068836252
289	2843	345157069679531
287	2855	345157070491698
287	2884	345157071319378
284	2897	345157072169679
281	2912	345157072959454
281	2924	345157073834445
278	2932	345157074758688
278	2933	345157075621669
274	2909	345157076469068
273	2899	345157077335183
272	2905	345157078175505
270	2925	345157079016671
269	2942	345157079844927
268	2981	345157080700575
266	3048	345157081563535
262	3050	345157082411154
262	3016	345157083339811
262	2992	345157084180061
260	2973	345157085017268
257	2967	345157085847132
261	2975	345157086717929
264	2995	345157087572411
262	3028	345157088382613
263	3066	345157089146620
265	3107	345157089961002
261	3129	345157090798334
258	3142	345157091658468
259	3153	345157092491915
265	3125	345157093326499
263	3115	345157094180010
266	3145	345157095011109
275	3224	345157095800445
284	3324	345157096672498
284	3406	345157097556162
282	3420	345157098173468
280	3414	345157099026635
280	3395	345157099824183
276	3362	345157100646407
274	3333	345157101446649
271	3314	345157102273003
270	3281	345157103058352
267	3262	345157103862220
276	3281	345157104672539
280	3308	345157105454996
279	3309	345157106247701
277	3293	345157107046318
277	3281	345157107827946
274	3271	345157108608670
272	3261	345157109398232
273	3232	345157110186327
280	3199	345157111000092
285	3166	345157111937538
288	3131	345157112751637
294	3114	345157113613260
293	3097	345157114443919
296	3064	345157115283654
298	3030	345157116125300
297	3005	345157116981492
295	3016	345157117847329
295	3031	345157118727972
296	3059	345157119635484
294	3061	345157120454294
296	3051	345157121268187
307	3067	345157122108486
308	3052	345157122927787
305	3022	345157123784715
308	3024	345157124700768
309	3004	345157125506665
309	3018	345157126343989
318	3056	345157127059583
321	3083	345157127897112
323	3125	345157128659859
326	3159	345157129487195
329	3185	345157130316543
326	3198	345157131166996
323	3193	345157131985080
320	3177	345157132846146
319	3161	345157133719950
317	3138	345157134643905
313	3105	345157135435934
310	3092	345157136279869
307	3106	345157137118897
311	3139	345157137950128
316	3184	345157138825833
321	3224	345157139527403
322	3251	345157140325251
319	3282	345157141143535
316	3300	345157141948172
311	3294	345157142760642
311	3272	345157143591903
311	3269	345157144371372
306	3241	345157145162491
304	3216	345157145798875
305	3247	345157146791121
305	3300	345157147668247
302	3286	345157148513877
308	3265	345157149344178
314	3250	345157150080457
312	3221	345157150925741
309	3192	345157151789467
304	3160	345157152666429
304	3130	345157153517711
303	3107	345157154205477
304	3096	345157155041081
302	3122	345157155892758
307	3144	345157156745020
318	3123	345157157612905
321	3121	345157158331397
321	3110	345157159144143
317	3082	345157159959608
314	3065	345157160718342
311	3068	345157161560146
313	3083	345157162396418
312	3109	345157163219409
311	3137	345157164044761
310	3158	345157164888952
307	3166	345157165754914
303	3166	345157166713832
298	3140	345157167580833
296	3113	345157168390839
294	3099	345157169091942
295	3099	345157169930187
296	3107	345157170807414
298	3130	345157171668493
297	3157	345157172519488
298	3183	345157173345655
299	3207	345157174186079
299	3216	345157175027256
296	3209	345157175868522
292	3186	345157176726785
289	3153	345157177557520
284	3133	345157178407820
289	3139	345157179195087
295	3149	345157180024243
300	3142	345157180883974
305	3121	345157181725290
303	3088	345157182558134
303	3058	345157183313663
300	3034	345157184129821
296	3010	345157184952630
295	3003	345157185809812
295	2973	345157186661677
296	2943	345157187489702
294	2921	345157188322174
290	2894	345157189209189
289	2882	345157189982387
296	2873	345157190829683
306	2864	345157191672577
312	2852	345157192497616
312	2825	345157193261934
307	2797	345157194072816
305	2765	345157194892451
305	2744	345157195751807
305	2733	345157196639828
300	2732	345157197491907
299	2729	345157198325275
294	2724	345157199141593
291	2717	345157199958314
288	2692	345157200719452
285	2677	345157201562743
283	2669	345157202399671
283	2672	345157203236480
279	2672	345157204048881
277	2700	345157204896661
280	2746	345157205744831
277	2768	345157206589966
273	2792	345157207420380
273	2779	345157208248426
275	2760	345157209059513
277	2733	345157209701778
280	2719	345157210441152
279	2702	345157211254912
276	2688	345157212102637
274	2694	345157212952358
272	2728	345157213811182
270	2808	345157214570159
270	2865	345157215419399
267	2901	345157216248402
265	2891	345157217095216
265	2862	345157217955322
262	2853	345157218670062
260	2867	345157219465823
260	2878	345157220257523
259	2862	345157221054836
256	2838	345157221958013
253	2832	345157222914211
252	2841	345157223742708
252	2832	345157224679423
252	2811	345157225410779
257	2807	345157226211795
259	2800	345157227028387
257	2769	345157227846494
254	2737	345157228673829
251	2710	345157229468711
249	2683	345157230262197
245	2656	345157231092403
245	2628	345157231993074
247	2609	345157232855258
249	2585	345157233711037
250	2560	345157234636263
258	2565	345157235448071
261	2604	345157236274898
260	2657	345157237122447
258	2699	345157237973366
256	2699	345157238827638
255	2678	345157239595986
255	2659	345157240428399
266	2693	345157241243862
284	2792	345157242077760
291	2889	345157242913882
294	2941	345157243726627
296	2945	345157244627266
301	2928	345157245436179
301	2908	345157246251243
301	2892	345157247082025
297	2886	345157247889875
294	2879	345157248734040
292	2868	345157249576108
288	2872	345157250420938
286	2858	345157251231445
289	2848	345157252061839
292	2861	345157252884353
292	2879	345157253730994
289	2880	345157254665785
285	2900	345157255518958
285	2923	345157256229836
282	2941	345157257069504
279	2951	345157257897951
275	2953	345157258728822
272	2946	345157259587479
269	2937	345157260434147
270	2931	345157261263940
271	2920	345157262110747
270	2889	345157262969261
267	2873	345157263823132
265	2870	345157264590883
261	2868	345157265359400
258	2862	345157266193908
255	2849	345157267037480
254	2830	345157267857952
265	2839	345157268711751
277	2859	345157269530195
283	2865	345157270338197
281	2845	345157271150690
279	2843	345157271984075
275	2824	345157272845930
272	2808	345157273688167
269	2807	345157274650222
265	2781	345157275481452
261	2760	345157276301143
263	2744	345157277108854
269	2730	345157277937813
266	2695	345157278890710
264	2696	345157279689292
264	2712	345157280518106
266	2742	345157281232202
263	2767	345157282058193
259	2784	345157282909328
258	2771	345157283768956
257	2756	345157284963473
258	2742	345157285840371
256	2747	345157286696531
253	2753	345157287482555
254	2792	345157288325355
256	2866	345157289153903
252	2929	345157289983897
253	2971	345157290860167
250	2988	345157291697553
249	2975	345157292572402
252	2948	345157293417420
255	2952	345157294241799
260	2966	345157295087439
271	2976	345157295829023
273	2990	345157296660774
270	3026	345157297494150
266	3058	345157298307141
267	3066	345157299122014
268	3061	345157299936535
266	3051	345157300791167
265	3054	345157301639366
268	3082	345157302475248
273	3058	345157303305920
270	3053	345157304118890
272	3065	345157304940122
281	3092	345157305700182
284	3119	345157306509656
281	3135	345157307341498
280	3134	345157308167677
281	3111	345157308981311
280	3091	345157309824722
277	3066	345157310466734
274	3057	345157311299812
271	3055	345157312147890
268	3044	345157312996934
265	3036	345157313853149
266	3043	345157314576725
265	3036	345157315427391
267	3008	345157316256929
270	2978	345157317103942
269	2949	345157317956359
265	2919	345157318709419
262	2898	345157319534546
259	2885	345157320358488
259	2876	345157321072863
256	2895	345157322000125
253	2936	345157322935812
251	2951	345157323798143
249	2955	345157324729671
246	2934	345157325592263
252	2922	345157326410522
257	2909	345157327081326
257	2893	345157327915210
260	2893	345157328749366
254	2898	345157329590668
253	2917	345157330396064
250	2939	345157331206428
247	2976	345157332036323
246	2995	345157332871446
242	2999	345157333708856
239	3003	345157334518026
237	2996	345157335349836
237	2974	345157336166322
233	2955	345157336999880
232	2951	345157337707322
230	2967	345157338521348
231	3004	345157339356309
230	3032	345157340198910
233	3050	345157341031403
238	3050	345157341998126
238	3028	345157342871343
237	2994	345157343705036
235	2971	345157344529979
235	2943	345157345360997
231	2947	345157346074248
232	2972	345157347007846
232	3007	345157347956587
230	3016	345157348817870
229	2990	345157349730882
228	2962	345157350589912
229	2937	345157351403401
227	2915	345157352080288
226	2932	345157352901401
227	2979	345157353702292
229	3004	345157354530806
231	3026	345157355381419
228	3021	345157356205782
227	2989	345157357054655
228	2988	345157357879822
227	2986	345157358737197
226	2974	345157359590923
223	3010	345157360436665
223	3025	345157361265814
226	3031	345157362111604
234	3055	345157362967771
244	3113	345157363823930
247	3167	345157364580010
244	3196	345157365426816
240	3217	345157366287394
238	3217	345157367139156
239	3189	345157367978365
242	3177	345157368713335
249	3178	345157369516271
257	3189	345157370340849
264	3217	345157371154083
266	3253	345157371994050
270	3295	345157372857618
269	3336	345157373703808
273	3348	345157374516196
276	3331	345157375325729
280	3301	345157376136699
284	3265	345157376980635
286	3248	345157377837417
295	3248	345157378646528
310	3251	345157379457222
327	3257	345157380289058
343	3265	345157381104973
353	3262	345157382019752
360	3245	345157382877969
356	3224	345157383732079
356	3188	345157384598234
358	3162	345157385362651
363	3151	345157386186074
366	3132	345157387046394
362	3149	345157387894261
357	3176	345157388752470
355	3195	345157389594510
354	3198	345157390435119
352	3194	345157391285232
348	3192	345157392126346
343	3170	345157392979289
339	3136	345157393712802
342	3129	345157394537461
356	3179	345157395376054
371	3263	345157396210945
373	3317	345157397062574
369	3358	345157397915200
364	3354	345157398771450
363	3369	345157399629378
363	3384	345157400479971
362	3354	345157401310559
369	3342	345157402090306
366	3358	345157402977217
360	3372	345157403803546
356	3381	345157404743221
353	3403	345157405625940
352	3413	345157406469661
349	3412	345157407316310
345	3407	345157408144650
342	3387	345157408973372
340	3356	345157409832975
338	3321	345157410717111
336	3314	345157411532216
342	3327	345157412195005
344	3339	345157412994248
344	3363	345157413832692
346	3406	345157414588102
346	3422	345157415424297
343	3410	345157416234941
344	3380	345157417037981
347	3354	345157417701520
345	3343	345157418502624
347	3364	345157419325300
349	3403	345157420132755
348	3433	345157420842381
344	3465	345157421689229
341	3470	345157422540365
337	3463	345157423349625
334	3483	345157424169802
331	3467	345157424935981
327	3434	345157425793405
329	3406	345157426656399
338	3448	345157427523008
350	3504	345157428348562
351	3528	345157429095250
350	3546	345157429950239
355	3580	345157430806092
353	3645	345157431681937
354	3662	345157432550566
355	3644	345157433334400
351	3616	345157434170392
351	3590	345157435017591
359	3586	345157435856274
363	3594	345157436716572
362	3608	345157437500211
359	3626	345157438319961
355	3649	345157439135873
352	3675	345157439964237
348	3696	345157440795593
344	3689	345157441626578
339	3661	345157442454721
336	3639	345157443269011
336	3612	345157444072616
338	3576	345157444928974
335	3554	345157445701992
338	3558	345157446514953
336	3578	345157447355084
331	3598	345157448167299
331	3635	345157448980818
336	3651	345157449839350
342	3622	345157450678604
344	3605	345157451488106
347	3570	345157452128095
361	3541	345157452955930
377	3506	345157453700141
378	3490	345157454548904
380	3500	345157455382529
382	3526	345157456212076
379	3549	345157456973935
377	3535	345157457832927
377	3500	345157458694568
380	3473	345157459645502
384	3456	345157460379653
392	3454	345157461208559
400	3446	345157462070254
404	3410	345157462898898
400	3382	345157463719413
397	3399	345157464592893
395	3452	345157465427927
392	3465	345157466249378
393	3445	345157467107187
394	3432	345157467921163
390	3410	345157468727169
393	3414	345157469552574
396	3437	345157470364517
394	3456	345157471177636
392	3480	345157472033161
391	3507	345157472831932
387	3547	345157473676551
385	3574	345157474497425
384	3583	345157475328362
381	3599	345157476142240
377	3592	345157477003100
374	3559	345157477843504
379	3544	345157478683192
377	3565	345157479488580
373	3620	345157480319537
370	3676	345157481142704
365	3719	345157481980034
361	3761	345157482844791
365	3822	345157483756547
365	3840	345157484686404
362	3814	345157485364328
368	3792	345157486180400
372	3777	345157487009070
378	3776	345157487846814
383	3817	345157488687786
384	3866	345157489520077
381	3893	345157490332614
378	3901	345157491117851
376	3890	345157492008220
375	3867	345157492850156
376	3833	345157493693769
375	3792	345157494540292
378	3778	345157495373119
382	3747	345157496201595
382	3708	345157497056792
379	3678	345157497848733
375	3649	345157498708489
370	3624	345157499532106
365	3601	345157500359147
361	3586	345157501183009
359	3580	345157502053242
360	3597	345157503006529
358	3598	345157503865231
359	3637	345157504800628
358	3644	345157505632811
357	3626	345157506475499
354	3591	345157507341522
356	3562	345157508169162
360	3533	345157508991210
361	3510	345157509847091
359	3474	345157510687057
358	3438	345157511495808
355	3422	345157512348651
352	3427	345157513169388
362	3466	345157513972132
369	3511	345157514929926
365	3531	345157515769400
360	3524	345157516602970
362	3486	345157517506735
364	3455	345157518309483
358	3435	345157519121480
356	3421	345157519953830
358	3415	345157520790230
360	3436	345157521630326
362	3470	345157522477058
359	3466	345157523308281
358	3438	345157524135823
360	3434	345157524975402
360	3436	345157525841003
359	3418	345157526701493
355	3388	345157527544741
355	3386	345157528375923
358	3375	345157529103710
357	3364	345157529945978
356	3367	345157530803912
353	3378	345157531836370
351	3395	345157532708424
348	3378	345157533367392
348	3361	345157534183287
347	3344	345157534992223
348	3317	345157535812800
346	3304	345157536652413
342	3272	345157537448079
338	3255	345157538176704
336	3259	345157539009408
331	3265	345157539859144
332	3255	345157540721196
330	3239	345157541553144
326	3224	345157542416864
328	3204	345157543245820
329	3182	345157544073798
335	3175	345157544945898
339	3161	345157545700265
337	3143	345157546527664
335	3114	345157547369568
332	3122	345157548200942
333	3135	345157549031125
338	3124	345157549891806
344	3109	345157550747920
343	3089	345157551564641
350	3084	345157552394456
360	3062	345157553209161
363	3054	345157554026579
361	3090	345157554931926
364	3104	345157555742787
362	3089	345157556552052
361	3078	345157557411711
366	3049	345157558231552
376	3027	345157559065403
383	3001	345157559876921
385	3007	345157560713485
379	3035	345157561525890
375	3072	345157562379542
375	3093	345157563193511
388	3102	345157564006588
431	3104	345157564917281
472	3094	345157565787791
499	3073	345157566606201
515	3043	345157567469003
520	3027	345157568297808
515	3021	345157569124883
514	3041	345157569936237
521	3087	345157570795926
533	3151	345157571652597
547	3225	345157572496363
557	3289	345157573310551
567	3325	345157574147773
573	3339	345157574981354
587	3364	345157575839057
612	3345	345157576926384
638	3331	345157577698373
668	3346	345157578511543
695	3395	345157579117346
701	3445	345157579971369
692	3531	345157580836460
691	3615	345157581703996
691	3691	345157582548239
691	3730	345157583359906
687	3729	345157584193129
691	3702	345157585043573
689	3670	345157585697901
687	3662	345157586526741
691	3668	345157587369969
688	3669	345157588170490
680	3663	345157589001767
676	3659	345157589876759
668	3678	345157590736366
663	3658	345157591565249
663	3626	345157592424556
669	3614	345157593260094
673	3587	345157594080494
675	3579	345157594937627
670	3576	345157595775524
670	3568	345157596611994
666	3532	345157597465010
661	3498	345157598292586
656	3481	345157599110823
652	3505	345157599945705
650	3523	345157600780731
641	3514	345157601588243
635	3500	345157602434452
628	3495	345157603246769
626	3483	345157604059041
622	3447	345157604935436
618	3436	345157605700285
614	3424	345157606510684
607	3403	345157607363852
603	3374	345157608196221
600	3346	345157609026291
603	3386	345157609906334
608	3433	345157610749480
605	3422	345157611574400
601	3388	345157612440444
600	3353	345157613263750
603	3327	345157614105332
599	3309	345157615107797
591	3299	345157616005617
581	3277	345157617007285
574	3245	345157617882450
569	3227	345157618735550
565	3221	345157619564273
560	3229	345157620417551
556	3253	345157621251788
555	3296	345157622100538
553	3316	345157622862851
549	3327	345157623706857
547	3355	345157624519369
547	3399	345157625232128
546	3421	345157626045393
542	3408	345157627018043
542	3383	345157627878853
538	3356	345157628716309
533	3358	345157629530691
525	3398	345157630366824
523	3484	345157631186100
529	3581	345157632017900
536	3689	345157632779209
540	3747	345157633625898
540	3755	345157634435852
536	3733	345157635267762
533	3702	345157636078248
525	3700	345157637035487
520	3712	345157637699361
516	3720	345157638529654
512	3737	345157639359402
506	3754	345157640207457
501	3755	345157641038828
495	3722	345157642013994
490	3706	345157642890280
489	3691	345157643738305
488	3658	345157644570082
485	3639	345157645421460
479	3649	345157646256498
478	3665	345157647103748
471	3670	345157647861744
470	3641	345157648721431
475	3605	345157649551892
474	3577	345157650405063
472	3560	345157651220668
469	3549	345157651989819
469	3582	345157652849084
466	3606	345157653694985
465	3610	345157654502401
461	3607	345157655341972
468	3580	345157656162780
476	3542	345157657002470
479	3524	345157657862128
477	3537	345157658760057
473	3531	345157659616812
474	3507	345157660369091
478	3530	345157661196229
483	3575	345157662042601
481	3595	345157662908762
481	3603	345157663762670
475	3626	345157664736862
483	3673	345157665498842
491	3678	345157666259810
498	3663	345157667025884
504	3629	345157667886366
509	3594	345157668727341
512	3585	345157669534969
509	3557	345157670363108
504	3532	345157671191746
498	3552	345157672036264
496	3583	345157672868435
502	3607	345157673700511
513	3611	345157674516505
528	3611	345157675353347
542	3601	345157676138153
557	3566	345157676992950
563	3539	345157677850990
564	3502	345157678658913
563	3491	345157679492154
557	3484	345157680346128
550	3447	345157681180249
543	3407	345157682046683
536	3388	345157682909609
533	3365	345157683735947
537	3329	345157684545972
534	3308	345157685390884
529	3319	345157686223540
523	3319	345157687068719
515	3303	345157687915410
516	3329	345157688772569
514	3333	345157689495433
510	3306	345157690177264
503	3281	345157691009395
497	3270	345157691987423
492	3268	345157692868909
488	3242	345157693717906
489	3232	345157694532316
483	3229	345157695349154
478	3239	345157696167664
472	3257	345157697067927
467	3295	345157697703068
466	3326	345157698514514
472	3336	345157699327045
470	3309	345157699997107
470	3294	345157700837892
475	3303	345157701678687
483	3328	345157702534988
490	3353	345157703348559
494	3366	345157704120527
496	3382	345157704954139
490	3389	345157705700199
489	3373	345157706495511
494	3355	345157707363582
507	3335	345157708196342
513	3316	345157709092220
511	3299	345157710052760
511	3347	345157710917892
517	3371	345157711782455
528	3360	345157712494795
532	3363	345157713331293
539	3395	345157714170360
543	3435	345157715034735
541	3467	345157715894619
536	3457	345157716621233
531	3425	345157717478178
536	3403	345157718312339
546	3385	345157719140416
556	3385	345157719987687
570	3401	345157720754106
580	3422	345157721566832
589	3451	345157722398520
592	3499	345157723211776
589	3546	345157724024510
589	3586	345157724944818
585	3600	345157725698738
579	3585	345157726345591
579	3557	345157726999390
582	3541	345157727843495
595	3535	345157728667326
612	3558	345157729502197
620	3584	345157730318256
625	3609	345157731140699
628	3641	345157732043152
630	3679	345157732888654
630	3719	345157733698736
626	3731	345157734534231
621	3725	345157735372825
618	3694	345157736204809
614	3667	345157736967345
612	3664	345157737828552
610	3698	345157738686102
610	3730	345157739499198
610	3733	345157740328857
605	3721	345157741160304
604	3705	345157742053018
608	3668	345157742913346
612	3626	345157743749126
608	3596	345157744846217
609	3552	345157745995618
604	3568	345157746998074
604	3627	345157747873038
604	3626	345157748785934
600	3589	345157749637170
596	3551	345157750469707
591	3533	345157751303485
588	3553	345157752000482
589	3588	345157752762095
588	3614	345157753592715
581	3629	345157754422959
573	3633	345157755276097
568	3653	345157756107621
560	3662	345157757050675
558	3638	345157757925812
564	3686	345157758752731
574	3785	345157759580755
584	3839	345157760377667
589	3839	345157761202427
587	3818	345157762050909
595	3780	345157762921275
590	3762	345157763780398
587	3755	345157764504217
583	3749	345157765335450
582	3746	345157766162127
580	3734	345157767048305
573	3698	345157767907560
567	3660	345157768723573
565	3652	345157769535706
570	3673	345157770367303
572	3698	345157771178292
567	3733	345157772044734
560	3766	345157772879548
555	3781	345157773723559
549	3778	345157774536879
544	3773	345157775373118
539	3801	345157776187856
536	3823	345157777004276
533	3789	345157777867681
533	3749	345157778733074
529	3718	345157779557483
522	3724	345157780402936
516	3766	345157781238825
521	3787	345157782086299
517	3796	345157783049124
512	3839	345157783908336
513	3870	345157784824212
523	3903	345157785642171
526	3880	345157786472799
524	3849	345157787322095
524	3826	345157788168001
520	3803	345157788997439
520	3774	345157789858015
513	3748	345157790738580
507	3724	345157791566982
504	3691	345157792396284
507	3653	345157793157832
510	3619	345157794006690
514	3574	345157794924733
513	3541	345157795755458
509	3520	345157796581512
503	3504	345157797438546
496	3486	345157798285189
491	3458	345157799115220
487	3422	345157799942280
481	3394	345157800704303
478	3382	345157801533161
475	3379	345157802380640
480	3352	345157803232749
499	3333	345157804061842
513	3341	345157804974075
518	3344	345157805829050
551	3358	345157806670622
574	3358	345157807497985
590	3330	345157808255685
603	3301	345157809071060
609	3269	345157809700388
607	3259	345157810385025
605	3257	345157811199895
602	3246	345157812045041
607	3232	345157812910329
626	3234	345157813754751
657	3247	345157814507077
688	3254	345157815351066
708	3247	345157816169194
719	3243	345157817056177
732	3220	345157817700919
740	3196	345157818515224
746	3181	345157819327656
741	3183	345157820139468
744	3168	345157820762030
742	3151	345157821590740
735	3119	345157822460810
731	3097	345157823289157
725	3091	345157824084781
717	3077	345157824845356
712	3049	345157825705559
703	3024	345157826534673
699	2995	345157827404195
695	2974	345157828237139
688	2955	345157829065525
682	2967	345157829949698
679	3003	345157830821229
674	3008	345157831683861
672	3003	345157832550903
665	2984	345157833246597
662	2963	345157834077707
665	2932	345157834969240
666	2912	345157835808959
659	2904	345157836649903
654	2905	345157837452448
648	2913	345157838260399
639	2936	345157839116115
633	2962	345157839941140
625	2976	345157840763302
618	2964	345157841591582
615	2955	345157842423016
621	2978	345157843254414
618	2960	345157844082082
623	2944	345157844984343
619	2919	345157845701442
615	2893	345157846530167
614	2879	345157847375605
611	2877	345157848211245
605	2866	345157849040037
601	2847	345157849887736
594	2831	345157850732032
586	2805	345157851543370
583	2783	345157852377506
578	2775	345157853192931
571	2777	345157854006120
563	2761	345157854919493
560	2734	345157855762853
554	2719	345157856573692
547	2704	345157857427136
540	2693	345157858244303
537	2699	345157859069834
538	2678	345157859902767
540	2659	345157860707376
543	2649	345157861524227
542	2642	345157862378754
539	2695	345157863216960
533	2789	345157864045939
528	2869	345157864764017
523	2885	345157865599312
526	2881	345157866455979
524	2861	345157867317241
519	2833	345157868150172
516	2831	345157868982799
514	2845	345157869849237
513	2866	345157870708197
510	2885	345157871532607
506	2895	345157872375055
502	2885	345157873205502
496	2854	345157874035663
491	2837	345157874890778
491	2848	345157875750599
494	2858	345157876578647
494	2838	345157877420110
491	2808	345157878239930
502	2790	345157879021471
528	2781	345157879880023
549	2764	345157880708915
560	2758	345157881525731
564	2749	345157882380834
561	2740	345157883198931
556	2721	345157884011446
558	2717	345157884864775
566	2761	345157885710400
578	2792	345157886520311
593	2791	345157887372664
599	2857	345157888169010
602	2903	345157888989753
608	2926	345157889843494
623	2934	345157890682349
653	2918	345157891512544
678	2920	345157892376628
701	2899	345157893209823
703	2867	345157894038853
697	2847	345157895084594
699	2824	345157895763477
693	2817	345157896586838
688	2850	345157897322459
680	2901	345157898161693
673	2976	345157898993476
668	2995	345157899872698
673	2964	345157900729196
676	2941	345157901558084
676	2907	345157902421035
669	2876	345157903257115
661	2845	345157904084087
653	2811	345157904846347
648	2795	345157905793178
644	2781	345157906600583
639	2775	345157907471667
633	2774	345157908268094
626	2776	345157909092301
619	2778	345157909950683
615	2752	345157910812980
612	2725	345157911671850
605	2712	345157912391087
599	2713	345157913224298
594	2742	345157914054169
589	2794	345157915033755
586	2796	345157915894744
578	2769	345157916644862
573	2741	345157917510112
566	2726	345157918340428
561	2717	345157919165140
554	2721	345157920002478
549	2738	345157920766584
544	2793	345157921581254
541	2876	345157922438309
537	2942	345157923253695
532	2961	345157924068093
525	2933	345157924895541
520	2914	345157925743471
514	2919	345157926553751
510	2919	345157927386934
503	2904	345157928200879
502	2944	345157929016760
511	3019	345157929871058
526	3105	345157930717575
527	3163	345157931528588
528	3198	345157932382881
532	3223	345157933202793
528	3232	345157934043413
523	3201	345157934976286
516	3173	345157935832482
510	3155	345157936695784
504	3125	345157937411454
502	3109	345157938247796
500	3090	345157939078245
498	3102	345157939939696
493	3142	345157940798737
490	3172	345157941648253
487	3156	345157942511061
482	3126	345157943342939
481	3095	345157944139559
476	3061	345157944998513
476	3034	345157945701321
473	3018	345157946532819
466	2992	345157947376528
466	2965	345157948197002
469	2967	345157948983994
470	2985	345157949844813
468	2977	345157950806477
466	2956	345157951656065
464	2943	345157952488741
461	2930	345157953276279
462	2920	345157954096255
460	2912	345157954981576
462	2889	345157955822548
466	2871	345157956663238
462	2845	345157957524216
461	2848	345157958270586
462	2869	345157959086689
464	2920	345157959917154
467	2972	345157960637213
468	2992	345157961448168
465	2982	345157962320037
460	2949	345157963152361
457	2925	345157963981929
454	2910	345157964901885
451	2882	345157965699819
453	2854	345157966522101
470	2823	345157967373612
496	2808	345157968191866
530	2787	345157968892966
561	2786	345157969757202
583	2796	345157970563904
596	2809	345157971377368
607	2814	345157972204577
608	2819	345157972897930
603	2841	345157973699087
601	2860	345157974559762
612	2868	345157975385550
631	2873	345157976204171
653	2882	345157976974686
674	2887	345157977824045
701	2865	345157978662782
727	2845	345157979493787
754	2858	345157980308639
785	2896	345157981121562
809	2911	345157982064848
804	2890	345157982914345
802	2879	345157983757053
802	2859	345157984583712
806	2829	345157985408462
811	2801	345157986225340
806	2823	345157987075942
799	2848	345157987893572
790	2843	345157988734529
786	2832	345157989529599
786	2805	345157990363498
786	2779	345157991193378
784	2756	345157992093848
786	2728	345157992923474
779	2700	345157993649992
778	2680	345157994490952
774	2655	345157995323870
767	2633	345157996156481
760	2615	345157997087166
756	2609	345157997889691
750	2597	345157998748797
753	2605	345157999579414
760	2613	345158000399178
763	2597	345158001228423
762	2576	345158002026692
761	2572	345158002888299
761	2591	345158003746794
758	2616	345158004570024
750	2637	345158005396845
744	2652	345158006155248
739	2677	345158007176681
737	2687	345158007995966
732	2711	345158008718389
727	2735	345158009551345
721	2752	345158010179150
720	2761	345158010992874
712	2759	345158011831641
707	2740	345158012690906
700	2748	345158013507864
693	2812	345158014341679
687	2884	345158015177218
684	2934	345158015992144
685	2987	345158016655399
687	3002	345158017502084
683	3024	345158018341794
678	3071	345158019164992
676	3073	345158019999035
677	3049	345158020779450
675	3046	345158021620586
670	3056	345158022471929
664	3084	345158023302401
661	3114	345158024151753
669	3138	345158024907083
677	3120	345158025737080
682	3113	345158026560304
688	3087	345158027407671
694	3068	345158028242351
698	3051	345158029071166
700	3066	345158029700739
700	3072	345158030529526
698	3066	345158031149446
699	3057	345158032178180
696	3057	345158033001171
689	3050	345158033864691
684	3022	345158034766964
688	2992	345158035624807
693	2983	345158036472054
695	2988	345158037320036
694	3015	345158038152281
692	3074	345158039006855
691	3150	345158039865187
693	3231	345158040720656
704	3279	345158041481891
721	3263	345158042335307
744	3246	345158043166907
763	3222	345158044015525
761	3195	345158044933924
756	3186	345158045782317
758	3234	345158046613410
752	3305	345158047449957
747	3353	345158048266986
753	3418	345158049099392
763	3496	345158049701345
761	3530	345158050510808
753	3544	345158051337458
749	3528	345158052033023
743	3508	345158052882234
735	3479	345158053746276
729	3468	345158054554593
720	3470	345158055376310
713	3487	345158056154471
707	3514	345158057077205
700	3540	345158057701200
695	3555	345158058533058
689	3566	345158059368045
683	3557	345158060198273
682	3529	345158061040901
682	3489	345158062028109
678	3481	345158062998184
671	3477	345158063878351
667	3466	345158064805888
667	3453	345158065669766
666	3423	345158066515712
673	3391	345158067366200
673	3354	345158068198705
668	3324	345158069050959
676	3311	345158069911805
684	3283	345158070760451
681	3313	345158071601506
673	3360	345158072452124
669	3365	345158073254335
661	3384	345158074094693
664	3416	345158074913157
660	3404	345158075759253
662	3376	345158076565755
663	3362	345158077411753
663	3351	345158078230850
662	3319	345158079033331
656	3289	345158079868324
654	3309	345158080705998
656	3355	345158081537397
650	3399	345158082366599
644	3480	345158083194086
637	3565	345158084022455
636	3555	345158084894962
631	3518	345158085740220
627	3478	345158086573101
621	3447	345158087409420
622	3443	345158088245146
640	3464	345158088997240
656	3496	345158089852541
670	3532	345158090716520
675	3553	345158091535321
673	3557	345158092384841
668	3532	345158093182594
661	3501	345158094015658
652	3459	345158094938934
649	3424	345158095784229
651	3399	345158096626041
655	3376	345158097456832
660	3372	345158098258991
662	3361	345158099096282
663	3327	345158099916304
668	3301	345158100759341
680	3266	345158101589753
688	3245	345158102441071
687	3232	345158103278585
685	3201	345158104034966
680	3180	345158104956395
679	3176	345158105700293
677	3162	345158106542983
678	3132	345158107394114
678	3111	345158108223465
676	3091	345158109072149
669	3075	345158109931437
664	3054	345158110771639
658	3026	345158111597001
653	3018	345158112415106
654	3025	345158113268552
657	3038	345158114027644
654	3038	345158114950954
669	3030	345158115988613
689	3018	345158116848103
705	2989	345158117765399
714	2963	345158118597605
714	2928	345158119454322
709	2916	345158120284112
701	2923	345158121036544
695	2932	345158122044830
690	2941	345158122790700
689	2980	345158123616637
695	3053	345158124455900
705	3109	345158125302440
722	3135	345158126122245
745	3140	345158127041125
761	3118	345158127910778
776	3152	345158128769568
781	3235	345158129596268
771	3281	345158130444117
762	3306	345158131165977
757	3329	345158132093855
761	3328	345158132940265
764	3323	345158133754241
764	3325	345158134571227
765	3324	345158135290542
763	3316	345158136104714
754	3288	345158137073839
746	3290	345158137699336
738	3290	345158138513709
732	3284	345158139317562
725	3286	345158140131349
718	3284	345158140950254
714	3272	345158141805906
710	3249	345158142669255
707	3224	345158143477983
702	3190	345158144314467
692	3158	345158145151941
685	3141	345158145996100
676	3141	345158146878539
669	3153	345158147758253
663	3167	345158148589521
659	3147	345158149435582
654	3125	345158150267804
653	3131	345158151101021
652	3147	345158151993322
653	3162	345158152814599
648	3174	345158153674350
645	3184	345158154504819
639	3196	345158155337836
632	3214	345158156168878
627	3225	345158157108339
619	3229	345158157970622
612	3237	345158158826106
615	3222	345158159688630
617	3250	345158160294861
620	3299	345158161111495
632	3411	345158161958368
632	3485	345158162800234
625	3520	345158163624852
619	3542	345158164483799
615	3591	345158165315996
608	3612	345158166154575
601	3582	345158167105401
598	3554	345158167960528
598	3542	345158168672219
599	3544	345158169513134
600	3551	345158170350721
595	3557	345158171177899
587	3587	345158172105932
582	3621	345158172794068
579	3654	345158173609510
572	3708	345158174439121
565	3730	345158175280149
561	3730	345158176096907
559	3717	345158176953086
569	3692	345158177803031
584	3652	345158178616406
593	3654	345158179441036
590	3686	345158180255197
589	3696	345158181069809
587	3744	345158182047930
591	3809	345158182897898
594	3848	345158183737474
600	3853	345158184568959
614	3833	345158185552508
626	3800	345158186369436
631	3789	345158187227711
626	3836	345158188066716
621	3876	345158188931296
622	3907	345158189814005
629	3921	345158190673803
629	3889	345158191502792
623	3873	345158192368775
616	3867	345158193197944
614	3853	345158194028206
614	3817	345158194969715
613	3826	345158195787665
607	3822	345158196617142
603	3803	345158197468824
605	3816	345158198259036
603	3824	345158199072679
597	3837	345158199917084
597	3848	345158200752140
597	3829	345158201568326
593	3788	345158202434367
591	3746	345158203271457
586	3710	345158204046582
581	3697	345158204951611
577	3676	345158205816943
576	3659	345158206625194
575	3633	345158207475128
573	3612	345158208297618
569	3596	345158209126405
573	3572	345158209975646
574	3537	345158210804692
572	3503	345158211629040
567	3478	345158212422926
566	3473	345158213255227
563	3478	345158214053274
558	3493	345158215027608
552	3495	345158215888631
545	3470	345158216903060
539	3442	345158217700907
534	3428	345158218532013
528	3413	345158219364063
525	3410	345158220211400
527	3409	345158221039816
527	3426	345158221902820
527	3474	345158222797511
520	3514	345158223629693
518	3530	345158224458967
518	3531	345158225304999
521	3521	345158226157975
521	3502	345158227051190
518	3471	345158227922976
518	3470	345158228786192
517	3483	345158229615411
526	3556	345158230439482
545	3638	345158231145346
555	3669	345158232078952
550	3680	345158232810371
547	3698	345158233609700
550	3713	345158234407603
546	3682	345158235231552
540	3650	345158236029454
536	3618	345158236856839
533	3604	345158237659430
529	3577	345158238463842
527	3567	345158239265428
525	3583	345158240087332
521	3619	345158240890871
514	3640	345158241523833
510	3644	345158242355126
508	3636	345158243156842
504	3621	345158243956786
499	3591	345158244858828
499	3573	345158245677126
503	3559	345158246460309
504	3532	345158247279220
500	3508	345158248068110
498	3502	345158248881965
496	3562	345158249792391
494	3629	345158250543946
495	3617	345158251306230
498	3629	345158252024224
500	3652	345158252837845
505	3672	345158253621405
507	3698	345158254425678
508	3735	345158255206515
503	3777	345158255991146
504	3802	345158256723381
506	3806	345158257560186
508	3794	345158258307503
508	3763	345158259153192
510	3757	345158259961793
504	3807	345158260791139
502	3876	345158261638203
505	3935	345158262433105
508	3969	345158263263394
509	3997	345158264082714
507	4045	345158264797325
502	4064	345158265625553
500	4045	345158266467464
500	4001	345158267314911
497	3960	345158268124588
492	3928	345158268976571
487	3907	345158269839669
480	3902	345158270687854
476	3909	345158271529077
469	3932	345158272364809
465	3954	345158273047958
464	3969	345158273911854
459	3981	345158274823688
454	3977	345158275638728
448	3953	345158276450760
441	3913	345158277292586
441	3887	345158278108163
442	3876	345158278961794
441	3868	345158279802772
435	3853	345158280614119
433	3847	345158281451409
428	3841	345158282288358
425	3833	345158283099899
428	3817	345158283925900
430	3776	345158284811773
429	3748	345158285593297
429	3726	345158286381255
433	3707	345158287208717
433	3710	345158288010659
437	3750	345158288794713
442	3780	345158289472093
444	3806	345158290305990
446	3836	345158291157789
440	3819	345158292106162
436	3776	345158292964658
433	3746	345158293685924
431	3725	345158294516822
425	3756	345158295346952
423	3784	345158296196341
419	3804	345158297031449
423	3830	345158297811582
427	3867	345158298650562
423	3899	345158299478560
418	3913	345158300302741
417	3913	345158301136248
416	3877	345158302102567
415	3850	345158302952823
411	3836	345158303808702
411	3849	345158304620122
412	3879	345158305440855
412	3890	345158306184704
408	3871	345158307104181
403	3853	345158307944836
401	3838	345158308768158
396	3811	345158309583747
391	3771	345158310312690
387	3736	345158311139715
388	3691	345158312102367
388	3660	345158312921408
385	3622	345158313808005
385	3595	345158314435831
384	3571	345158315280070
381	3534	345158316126808
375	3487	345158317116280
373	3465	345158317980021
372	3455	345158318684638
373	3430	345158319512583
369	3423	345158320342129
365	3432	345158321195913
360	3443	345158322124004
354	3435	345158323060601
351	3402	345158323923287
349	3372	345158324855845
348	3335	345158325769899
354	3344	345158326606347
356	3390	345158327403924
353	3390	345158328128774
355	3377	345158328950354
358	3386	345158329701037
355	3397	345158330531593
353	3386	345158331192137
348	3367	345158332131604
344	3365	345158332997248
343	3362	345158333873512
344	3334	345158334804727
343	3327	345158335620401
341	3340	345158336429488
342	3339	345158337279906
345	3351	345158338112876
350	3377	345158338985848
350	3379	345158339841933
347	3369	345158340695027
347	3349	345158341549874
347	3343	345158342387069
346	3330	345158343218652
348	3311	345158344046859
348	3327	345158344880665
346	3338	345158345691624
343	3352	345158346518790
343	3376	345158347355803
346	3394	345158348178236
354	3395	345158349012780
360	3409	345158349702116
357	3389	345158350519960
361	3395	345158351344613
367	3409	345158352187785
375	3424	345158353004198
381	3447	345158353866146
390	3469	345158354743034
395	3500	345158355559135
396	3534	345158356187037
393	3557	345158357130010
389	3537	345158357937468
385	3533	345158358823624
381	3507	345158359651181
379	3478	345158360318472
378	3478	345158361081047
375	3513	345158362064149
370	3575	345158362922111
367	3640	345158363855054
373	3684	345158364774681
384	3696	345158365596112
388	3669	345158366439769
385	3649	345158367275454
385	3667	345158368089786
385	3673	345158368951068
384	3681	345158369700411
382	3689	345158370533954
383	3699	345158371381555
383	3714	345158372232964
380	3721	345158373068467
378	3715	345158373944865
377	3697	345158374875504
378	3713	345158375737190
379	3718	345158376578980
376	3711	345158377419530
371	3686	345158378264182
368	3648	345158379072686
365	3629	345158379931065
368	3610	345158380801819
366	3577	345158381660094
364	3539	345158382510499
363	3502	345158383186218
360	3478	345158384035926
362	3454	345158384943287
364	3416	345158385700126
368	3389	345158386535084
368	3376	345158387347630
368	3371	345158388164294
371	3338	345158388991856
379	3308	345158389835136
383	3277	345158390648947
385	3271	345158391491657
383	3267	345158392319876
380	3248	345158393138058
378	3222	345158393980705
373	3202	345158394891959
369	3210	345158395691906
368	3214	345158396517993
369	3194	345158397358747
371	3183	345158398180128
377	3209	345158399123120
376	3223	345158399944420
379	3192	345158400778172
381	3178	345158401624053
378	3151	345158402473372
382	3124	345158403305154
380	3121	345158404070777
381	3130	345158404990463
383	3120	345158405700469
386	3118	345158406552869
383	3133	345158407400422
379	3165	345158408195331
379	3182	345158409102586
376	3216	345158409955138
372	3232	345158410806805
366	3229	345158411655693
362	3211	345158412445054
360	3236	345158413373913
357	3249	345158414223715
353	3245	345158415102795
350	3237	345158415941728
349	3245	345158416829861
358	3303	345158417710110
358	3375	345158418522562
356	3459	345158419366488
350	3507	345158420198146
350	3484	345158421027676
346	3467	345158421701283
344	3454	345158422555787
340	3468	345158423386410
