739	2286	344967081269091
747	2273	344967082049130
758	2260	344967082673556
764	2252	344967083522777
771	2251	344967084355303
779	2260	344967085059322
784	2273	344967085861147
790	2288	344967086669239
790	2301	344967087490716
785	2310	344967088483848
775	2302	344967089167266
773	2286	344967089987136
769	2262	344967090797084
770	2249	344967091608032
776	2248	344967092572166
796	2262	344967093540060
814	2283	344967094387903
826	2301	344967095139943
828	2309	344967095948862
823	2313	344967096766017
813	2306	344967097581560
805	2281	344967098525585
807	2259	344967099300714
812	2250	344967100140668
822	2248	344967100946922
836	2254	344967101640414
844	2267	344967102452749
853	2284	344967103302905
859	2293	344967104158076
859	2294	344967104968717
856	2283	344967105771292
847	2262	344967106573807
838	2239	344967107382712
832	2223	344967108233537
833	2215	344967109056369
840	2215	344967109645336
845	2224	344967110448543
847	2242	344967111279949
843	2259	344967112079111
838	2270	344967112899168
833	2272	344967113723923
824	2261	344967114529931
818	2237	344967115365696
818	2221	344967116040710
820	2218	344967116855605
824	2222	344967117667912
829	2238	344967118616092
828	2261	344967119434505
828	2287	344967120119422
827	2303	344967120935279
826	2308	344967121638708
816	2299	344967122251131
811	2283	344967123064038
808	2263	344967123902364
806	2251	344967124739957
810	2251	344967125561321
822	2263	344967126367902
845	2280	344967127264338
860	2296	344967128076386
869	2306	344967128902905
866	2308	344967129639062
859	2300	344967130455774
857	2276	344967131294144
856	2251	344967132199403
858	2227	344967132860169
860	2218	344967133696378
864	2219	344967134531921
869	2235	344967135371596
873	2262	344967136337629
869	2283	344967137180172
860	2295	344967137997418
864	2291	344967138836748
870	2269	344967139646688
876	2250	344967140459861
876	2232	344967141236858
872	2226	344967142075104
865	2226	344967142877816
859	2239	344967143715076
851	2257	344967144510766
844	2270	344967145375184
840	2277	344967146112964
840	2276	344967146930843
849	2266	344967147732484
858	2245	344967148555125
868	2223	344967149249377
876	2212	344967150061584
888	2210	344967150871013
903	2221	344967151697253
913	2234	344967152492929
913	2248	344967153332401
903	2252	344967154095592
898	2252	344967154907646
898	2240	344967155497639
898	2225	344967156356337
894	2200	344967157186110
887	2183	344967158003457
884	2170	344967158836450
884	2167	344967159623182
883	2172	344967160436246
877	2181	344967161295632
869	2190	344967162211238
863	2197	344967163029811
856	2195	344967163853399
846	2179	344967164663517
841	2157	344967165481067
835	2140	344967166109254
832	2133	344967166917552
833	2132	344967167730187
838	2143	344967168493841
839	2160	344967169342868
840	2176	344967170122691
833	2188	344967170922371
824	2192	344967171722295
818	2186	344967172523186
816	2162	344967173504415
819	2148	344967174121289
822	2143	344967174923208
833	2144	344967175719904
846	2158	344967176373521
857	2176	344967177206593
868	2201	344967178026649
872	2212	344967178821663
875	2211	344967179625416
875	2201	344967180421778
869	2180	344967181256563
862	2158	344967182062260
864	2135	344967182890677
868	2122	344967183727124
876	2118	344967184541291
888	2133	344967185305238
895	2152	344967186086046
894	2180	344967186752025
893	2213	344967187584602
899	2253	344967188617195
894	2252	344967189438176
884	2230	344967190275693
874	2221	344967190877574
872	2218	344967191689741
865	2225	344967192626479
858	2246	344967193491552
850	2269	344967194340992
843	2296	344967195125849
840	2314	344967195938702
840	2320	344967196753178
846	2313	344967197561788
858	2292	344967198521286
869	2268	344967199247201
875	2263	344967200042539
886	2266	344967200850496
897	2279	344967201627116
902	2305	344967202481262
900	2332	344967203325995
890	2347	344967204177882
882	2348	344967204940122
880	2338	344967205529778
879	2323	344967206361637
880	2299	344967207192137
879	2284	344967207992822
888	2277	344967208811989
899	2283	344967209618396
917	2300	344967210432919
937	2323	344967211286372
947	2343	344967212216780
950	2355	344967213039007
943	2350	344967213885076
934	2330	344967214698001
926	2316	344967215509248
929	2313	344967216315885
935	2317	344967217168702
942	2322	344967217984761
948	2334	344967218820755
953	2347	344967219598501
955	2356	344967220411222
953	2363	344967221253407
947	2360	344967222089758
938	2351	344967222913064
929	2326	344967223741087
921	2309	344967224548270
918	2301	344967225373589
919	2305	344967226261932
929	2322	344967227073141
940	2338	344967227876819
943	2354	344967228641554
944	2361	344967229465738
941	2359	344967230289938
934	2344	344967231125628
925	2320	344967231921787
921	2298	344967232644675
923	2289	344967233544786
931	2289	344967234397788
942	2299	344967235227781
952	2314	344967236030656
960	2329	344967236775724
955	2338	344967237585607
953	2340	344967238528947
966	2330	344967239376597
981	2306	344967240221410
987	2287	344967240898722
991	2277	344967241636467
995	2275	344967242466160
995	2284	344967243310218
990	2303	344967244193687
983	2323	344967245013216
980	2336	344967245826039
976	2345	344967246650419
980	2341	344967247467976
987	2317	344967248434632
997	2299	344967249285014
1004	2290	344967250142378
1014	2296	344967250962631
1024	2313	344967251770356
1032	2344	344967252590806
1025	2371	344967253407048
1032	2380	344967254259498
1048	2377	344967255062891
1060	2363	344967255864761
1072	2339	344967256680504
1080	2320	344967257486972
1080	2306	344967258322958
1076	2300	344967259167366
1068	2310	344967259967671
1059	2330	344967260774668
1056	2352	344967261596582
1055	2368	344967262461491
1053	2370	344967263299696
1057	2360	344967264149888
1056	2337	344967264952909
1060	2322	344967265640514
1063	2318	344967266466185
1072	2320	344967267316901
1080	2326	344967268029031
1085	2335	344967268878554
1084	2344	344967269697888
1076	2350	344967270512516
1070	2347	344967271350470
1058	2332	344967272153805
1048	2306	344967272966010
1037	2288	344967273646871
1030	2277	344967274292659
1023	2265	344967275097322
1017	2251	344967275909215
1011	2240	344967276646619
1011	2235	344967277467600
1002	2242	344967278330300
990	2253	344967279193331
983	2261	344967280009983
977	2261	344967280772521
976	2247	344967281581509
991	2221	344967282461488
1010	2209	344967283308658
1014	2208	344967284164272
1006	2214	344967284898509
1011	2230	344967285722266
1021	2248	344967286528663
1032	2265	344967287359623
1041	2273	344967288184380
1048	2270	344967288900937
1051	2260	344967289640636
1049	2235	344967290556843
1042	2216	344967291379109
1031	2209	344967292292000
1019	2218	344967293030516
1013	2235	344967293850563
1011	2260	344967294674248
1015	2285	344967295506983
1030	2304	344967296348077
1038	2309	344967297157122
1042	2299	344967297983477
1046	2276	344967298825359
1038	2260	344967299644321
1030	2261	344967300482813
1032	2278	344967301331317
1032	2306	344967302250068
1038	2336	344967303063564
1050	2354	344967303874350
1059	2362	344967304713794
1072	2354	344967305534031
1082	2334	344967306379559
1090	2310	344967307224522
1090	2299	344967308034997
1083	2298	344967308857507
1072	2303	344967309663858
1066	2315	344967310465290
1074	2341	344967311298279
1085	2363	344967312101712
1092	2370	344967312935084
1094	2362	344967313762547
1086	2343	344967314569925
1080	2317	344967315393834
1070	2298	344967316225192
1061	2290	344967317031246
1058	2301	344967317854967
1049	2317	344967318688508
1040	2330	344967319493639
1027	2345	344967320548103
1017	2356	344967321356494
1013	2355	344967322201371
1003	2341	344967323012376
995	2317	344967323846184
997	2296	344967324713371
1012	2289	344967325538889
1032	2290	344967326390033
1048	2304	344967327228281
1057	2316	344967328025511
1051	2322	344967328871307
1041	2329	344967329639912
1039	2328	344967330445607
1045	2317	344967331257883
1064	2295	344967332061629
1086	2273	344967332886816
1108	2260	344967333713782
1127	2259	344967334520325
1150	2277	344967335378013
1172	2295	344967336216966
1188	2308	344967336805641
1197	2313	344967337639459
1196	2311	344967338565492
1187	2298	344967339395742
1192	2273	344967340287506
1195	2254	344967340937769
1198	2245	344967341743004
1197	2249	344967342558609
1205	2261	344967343491133
1221	2277	344967344298280
1229	2290	344967345037449
1237	2300	344967345817822
1240	2305	344967346594819
1231	2300	344967347387647
1222	2283	344967348192481
1222	2258	344967348991084
1218	2245	344967349585587
1212	2239	344967350400431
1206	2241	344967351218383
1205	2255	344967352001324
1204	2276	344967352798265
1204	2295	344967353399367
1204	2307	344967354235900
1206	2314	344967355021702
1203	2310	344967355806993
1194	2295	344967356562385
1181	2273	344967357410424
1167	2259	344967358257135
1155	2257	344967359110600
1148	2267	344967359701963
1144	2281	344967360544867
1144	2300	344967361318074
1141	2312	344967362238772
1139	2322	344967363057775
1139	2318	344967363905290
1134	2300	344967364711872
1122	2273	344967365517420
1114	2256	344967366306069
1119	2249	344967367078032
1120	2249	344967367745247
1113	2261	344967368585541
1105	2279	344967369416392
1106	2293	344967370135479
1105	2300	344967370951300
1110	2302	344967371768517
1118	2293	344967372425322
1122	2273	344967373303815
1114	2249	344967374288881
1104	2230	344967375142658
1093	2221	344967375955839
1082	2227	344967376674937
1073	2235	344967377489115
1062	2250	344967378338604
1057	2260	344967379193661
1054	2264	344967379997304
1052	2267	344967380763963
1046	2257	344967381571851
1038	2233	344967382462630
1025	2216	344967383294417
1017	2213	344967384146385
1008	2220	344967384898856
997	2235	344967385694450
989	2251	344967386465591
980	2268	344967387233890
970	2281	344967387994428
962	2284	344967388760536
969	2277	344967389534526
972	2256	344967390353347
966	2236	344967391169287
957	2228	344967391953224
948	2234	344967392685241
941	2248	344967393547648
932	2270	344967394364954
930	2293	344967395301932
935	2306	344967396113324
944	2310	344967396894830
950	2304	344967397693928
953	2286	344967398576308
953	2263	344967399290831
947	2256	344967400111848
946	2257	344967400921363
944	2275	344967401723473
939	2303	344967402550077
929	2326	344967403415254
926	2340	344967404257732
932	2347	344967405019257
938	2343	344967405840514
946	2325	344967406668022
954	2302	344967407486030
968	2287	344967408333396
985	2285	344967409176243
1001	2294	344967409987883
1016	2312	344967410806134
1019	2330	344967411624215
1016	2342	344967412490788
1007	2347	344967413333530
998	2343	344967414202868
995	2319	344967415033109
998	2298	344967415853265
1005	2287	344967416689677
1028	2286	344967417503339
1059	2298	344967418348574
1092	2316	344967419201061
1120	2331	344967420024137
1131	2341	344967420832307
1132	2347	344967421641830
1130	2343	344967422477029
1122	2322	344967423318679
1109	2300	344967424229612
1100	2287	344967424989008
1092	2284	344967425811272
1089	2292	344967426629455
1089	2313	344967427462123
1099	2335	344967428307609
1116	2350	344967429171959
1127	2360	344967429932643
1126	2361	344967430546877
1117	2352	344967431391339
1106	2323	344967432327575
1093	2306	344967433163124
1080	2297	344967434000935
1075	2306	344967434669114
1066	2328	344967435479468
1058	2359	344967436314687
1053	2381	344967437158056
1042	2391	344967437965439
1031	2390	344967438796465
1024	2374	344967439616553
1014	2348	344967440423400
1007	2328	344967441161793
1000	2320	344967441986600
994	2321	344967442792112
985	2327	344967443616563
977	2339	344967444423285
970	2352	344967445269139
969	2357	344967446086093
976	2354	344967446920995
985	2340	344967447736899
993	2318	344967448571274
998	2293	344967449308415
1001	2280	344967450149387
1000	2272	344967450965089
992	2278	344967451798746
984	2290	344967452618891
980	2301	344967453420868
978	2305	344967454289262
974	2304	344967455104505
972	2300	344967455910606
979	2287	344967456743453
988	2263	344967457550845
1001	2240	344967458507197
1009	2234	344967459334039
1015	2238	344967460160116
1019	2246	344967460983647
1013	2257	344967461803416
1001	2271	344967462591532
991	2282	344967463562674
982	2274	344967464402148
976	2251	344967465249396
978	2230	344967465957385
978	2217	344967466753326
987	2214	344967467570047
1008	2234	344967468528964
1030	2261	344967469379348
1056	2283	344967470053785
1072	2290	344967470868355
1086	2287	344967471661603
1094	2268	344967472604374
1088	2241	344967473444636
1078	2229	344967474303707
1084	2218	344967475118003
1103	2207	344967475924509
1127	2213	344967476726184
1146	2227	344967477525697
1158	2246	344967478359533
1177	2258	344967479208558
1189	2263	344967479989155
1188	2259	344967480569895
1183	2248	344967481426214
1170	2222	344967482372046
1159	2210	344967483235315
1155	2211	344967484065597
1155	2224	344967484706750
1156	2239	344967485527792
1163	2263	344967486481900
1170	2282	344967487337512
1175	2290	344967488182689
1182	2283	344967488777710
1186	2269	344967489585732
1194	2243	344967490416445
1196	2227	344967491246061
1188	2218	344967492052884
1174	2222	344967492877395
1164	2234	344967493722713
1155	2251	344967494531807
1144	2262	344967495360139
1135	2274	344967496205803
1125	2279	344967497012579
1114	2271	344967497821759
1107	2250	344967498639792
1096	2229	344967499332320
1088	2222	344967500165381
1080	2219	344967500987146
1070	2226	344967501638930
1066	2238	344967502499065
1071	2258	344967503340256
1076	2275	344967504207695
1081	2286	344967505025702
1087	2283	344967505860742
1090	2268	344967506678305
1094	2245	344967507492546
1099	2228	344967508335820
1100	2220	344967509256944
1093	2225	344967510079267
1084	2239	344967510904468
1076	2257	344967511701521
1077	2270	344967512521458
1087	2278	344967513350526
1106	2275	344967514050575
1124	2259	344967514860696
1140	2235	344967515701066
1149	2219	344967516517213
1155	2213	344967517356481
1157	2216	344967518089550
1148	2229	344967518936487
1140	2250	344967519756618
1134	2268	344967520596324
1121	2279	344967521443990
1109	2276	344967522180332
1103	2265	344967523010523
1095	2241	344967523845036
1087	2226	344967524656991
1078	2220	344967525503037
1073	2230	344967526310613
1073	2246	344967527125139
1067	2265	344967527936839
1054	2280	344967528674866
1045	2289	344967529489193
1042	2288	344967530339903
1039	2277	344967531171773
1028	2253	344967531974762
1019	2235	344967532556548
1013	2227	344967533519030
1010	2226	344967534357038
1005	2233	344967535176834
1002	2250	344967535981499
1005	2264	344967536788641
1001	2274	344967537610652
996	2276	344967538559595
988	2263	344967539393281
978	2242	344967540241255
968	2221	344967540938944
959	2209	344967541639721
953	2208	344967542491000
951	2221	344967543347851
953	2241	344967544215331
958	2259	344967545049648
967	2269	344967545870824
969	2272	344967546691437
965	2262	344967547501414
958	2240	344967548344602
949	2226	344967549215202
940	2214	344967550052537
938	2210	344967550869769
946	2217	344967551681649
956	2233	344967552518921
956	2251	344967553360992
951	2268	344967554223502
943	2277	344967555037822
935	2270	344967555840541
929	2251	344967556659318
916	2229	344967557488541
909	2218	344967558331197
905	2213	344967559184862
913	2227	344967559981282
927	2246	344967560788982
936	2268	344967561594318
941	2283	344967562496642
943	2288	344967563337762
934	2279	344967564188790
933	2257	344967564978220
942	2236	344967565639405
951	2224	344967566443659
965	2218	344967567295614
982	2221	344967568098698
1001	2236	344967568932296
1020	2250	344967569733640
1033	2259	344967570511927
1036	2269	344967571371613
1026	2266	344967572190191
1033	2248	344967573014025
1050	2227	344967573856472
1071	2216	344967574667032
1081	2209	344967575486024
1088	2208	344967576315408
1092	2213	344967577125286
1082	2223	344967577944915
1079	2230	344967578784686
1072	2234	344967579620632
1066	2238	344967580448395
1062	2227	344967581298673
1052	2205	344967582114930
1042	2188	344967582931849
1032	2181	344967583770226
1033	2189	344967584616742
1048	2218	344967585448639
1064	2252	344967586304173
1069	2267	344967587126833
1073	2277	344967587930856
1066	2269	344967588755929
1056	2252	344967589577812
1045	2228	344967590409572
1035	2211	344967591237652
1028	2201	344967592058484
1029	2203	344967592891030
1028	2218	344967593639102
1023	2237	344967594440753
1031	2260	344967595104413
1045	2272	344967595908162
1068	2282	344967596735690
1087	2282	344967597542359
1092	2265	344967598394002
1085	2241	344967599216008
1075	2228	344967600041305
1067	2228	344967600862279
1066	2238	344967601695501
1068	2258	344967602528817
1069	2278	344967603377189
1065	2292	344967604261384
1059	2297	344967605081759
1054	2289	344967605859304
1047	2269	344967606695985
1036	2243	344967607512472
1029	2227	344967608354479
1020	2219	344967609119271
1011	2220	344967609730909
1003	2224	344967610547134
994	2236	344967611408269
987	2247	344967612358854
985	2250	344967613217488
986	2250	344967614069207
987	2238	344967614891675
992	2215	344967615706584
998	2196	344967616538853
1012	2189	344967617372325
1017	2196	344967618387333
1013	2212	344967619226924
1011	2231	344967620032439
1009	2247	344967620810376
1006	2251	344967621638776
996	2243	344967622502054
987	2221	344967623338632
977	2202	344967624190148
966	2192	344967625006031
968	2191	344967625640350
976	2196	344967626315601
991	2205	344967627135182
1015	2229	344967628394941
1035	2245	344967629301171
1041	2251	344967630125871
1042	2242	344967630944981
1042	2222	344967631780739
1034	2200	344967632567861
1024	2194	344967633537227
1017	2199	344967634382447
1020	2213	344967635225580
1030	2235	344967636042240
1046	2254	344967636704196
1061	2267	344967637524274
1080	2279	344967638368114
1092	2277	344967639227713
1096	2256	344967640048341
1095	2239	344967640875504
1087	2229	344967641697975
1077	2227	344967642507213
1074	2238	344967643344055
1079	2257	344967644213104
1083	2277	344967645022919
1090	2291	344967645843230
1089	2298	344967646649289
1087	2293	344967647449606
1087	2277	344967648285744
1087	2253	344967649131160
1086	2241	344967649940306
1080	2239	344967650751600
1071	2246	344967651324867
1064	2259	344967652127474
1057	2275	344967652939710
1050	2289	344967653787581
1040	2301	344967654618732
1034	2303	344967655445195
1030	2293	344967656349184
1030	2271	344967657183604
1027	2249	344967657990710
1023	2238	344967658842038
1028	2243	344967659650418
1036	2261	344967660455072
1033	2284	344967661341291
1030	2299	344967662140932
1022	2305	344967662961620
1018	2298	344967663816551
1018	2279	344967664634839
1028	2255	344967665464967
1043	2232	344967666115670
1055	2221	344967666876771
1067	2217	344967667692392
1084	2223	344967668591014
1089	2241	344967669429946
1096	2264	344967670083527
1104	2278	344967670898302
1112	2284	344967671703284
1106	2278	344967672508423
1100	2266	344967673361082
1104	2244	344967674213562
1110	2228	344967675011567
1115	2227	344967675818463
1118	2238	344967676621450
1121	2254	344967677453345
1119	2272	344967678307853
1115	2285	344967679133498
1105	2291	344967679938614
1096	2290	344967680698079
1087	2274	344967681505844
1078	2248	344967682428044
1075	2231	344967683295772
1074	2226	344967684103991
1074	2230	344967684667973
1070	2240	344967685472967
1064	2258	344967686220796
1057	2267	344967687005867
1049	2277	344967687793822
1040	2276	344967688593178
1033	2264	344967689413214
1025	2241	344967690249232
1020	2218	344967690920648
1016	2205	344967691706737
1012	2212	344967693593076
1007	2221	344967694452825
999	2238	344967695069860
993	2243	344967695876788
984	2244	344967696683821
975	2237	344967697470613
974	2220	344967698321613
979	2196	344967699126777
977	2181	344967699917572
966	2173	344967700749964
962	2177	344967701352550
958	2191	344967702295289
946	2218	344967703092474
939	2240	344967703907879
932	2249	344967704716087
929	2248	344967705391012
923	2241	344967706121503
919	2220	344967706937563
910	2200	344967707580037
904	2188	344967708546038
892	2187	344967709376345
886	2197	344967710195673
885	2215	344967710991145
886	2235	344967711708907
884	2250	344967712559499
884	2258	344967713378082
886	2252	344967714256949
889	2232	344967715082190
893	2209	344967715905985
900	2199	344967716724914
909	2199	344967717537777
918	2206	344967718389893
921	2221	344967719517705
918	2234	344967720400490
928	2238	344967721312165
942	2231	344967722131860
954	2215	344967722961901
960	2192	344967723803207
967	2169	344967724631916
969	2156	344967725474758
977	2155	344967726108393
981	2160	344967726926768
983	2168	344967727742266
973	2176	344967728522550
967	2179	344967729351328
962	2180	344967730190704
963	2171	344967730950158
976	2151	344967731733113
988	2130	344967732513578
993	2114	344967733344634
996	2107	344967734061488
1000	2109	344967734741086
1006	2116	344967735533902
1011	2129	344967736348190
1007	2140	344967737152367
998	2147	344967737931570
988	2145	344967738733248
979	2136	344967739528877
972	2117	344967740337443
962	2096	344967740990342
958	2084	344967741625785
957	2082	344967742518496
960	2091	344967743355823
965	2109	344967744203003
971	2126	344967745011213
976	2138	344967745678006
975	2142	344967746491641
975	2139	344967747237036
977	2126	344967748030586
977	2105	344967748790112
967	2088	344967749609805
958	2078	344967750456715
960	2076	344967751327717
964	2081	344967752146476
973	2090	344967752984263
989	2098	344967753826714
1002	2106	344967754650574
1013	2107	344967755458288
1016	2106	344967756323339
1010	2093	344967757144660
999	2074	344967757961423
989	2052	344967758816126
979	2043	344967759624438
984	2059	344967760463808
1000	2088	344967761304303
1010	2119	344967762112279
1014	2138	344967762925884
1014	2155	344967763773057
1004	2156	344967764596403
994	2140	344967765440878
987	2124	344967766492819
991	2124	344967767342024
1001	2133	344967767960413
1007	2159	344967768816578
1016	2202	344967769640554
1018	2231	344967770475319
1007	2246	344967771311495
998	2243	344967772212757
993	2230	344967773038432
987	2207	344967773890120
979	2191	344967774661271
969	2186	344967775483399
966	2192	344967776341862
965	2214	344967777541284
964	2235	344967778404906
964	2252	344967779272858
953	2257	344967780080126
947	2251	344967780711831
945	2238	344967781541957
952	2216	344967782438329
961	2193	344967783288743
967	2182	344967784110610
972	2189	344967784703830
979	2202	344967785515972
982	2220	344967786262753
981	2229	344967787065966
979	2237	344967787876104
977	2237	344967788637558
977	2225	344967789469781
968	2200	344967790307380
964	2180	344967790967138
960	2165	344967791757473
958	2147	344967792587316
954	2133	344967793561836
946	2130	344967794420956
942	2141	344967795092211
944	2157	344967795998400
951	2172	344967796809088
953	2169	344967797634261
944	2145	344967798618084
935	2124	344967799472671
929	2112	344967800320826
932	2112	344967801115836
939	2127	344967801929249
943	2146	344967802760756
942	2164	344967803618810
937	2175	344967804516102
927	2177	344967805359521
924	2166	344967806214930
925	2144	344967807030352
925	2126	344967807844022
928	2117	344967808711579
935	2116	344967809528749
941	2128	344967810371051
949	2148	344967811203256
953	2166	344967812014270
950	2175	344967812827960
940	2178	344967813678527
935	2168	344967814494338
932	2146	344967815330085
930	2128	344967816129707
929	2118	344967816942083
927	2118	344967817754297
930	2133	344967818694005
928	2154	344967819506227
929	2173	344967820365404
923	2188	344967821310485
916	2190	344967822099669
909	2181	344967822914231
901	2158	344967823736811
897	2143	344967824511643
892	2134	344967825354280
883	2139	344967826181451
874	2156	344967826956273
866	2175	344967827736648
859	2193	344967828592467
863	2204	344967829406747
868	2207	344967830255327
858	2194	344967831068475
857	2172	344967831848736
858	2154	344967832591524
864	2144	344967833552194
868	2143	344967834416017
875	2155	344967835275385
884	2173	344967836087392
886	2189	344967836748661
882	2200	344967837572035
882	2202	344967838562457
882	2193	344967839383952
884	2172	344967840318030
891	2150	344967841142944
888	2142	344967841977834
882	2147	344967842814162
888	2164	344967843667261
911	2187	344967844481740
934	2206	344967845131330
947	2215	344967845973255
961	2219	344967846795645
970	2210	344967847577701
973	2183	344967848555178
964	2171	344967849251256
962	2166	344967850075692
964	2165	344967850907933
972	2176	344967851712539
977	2194	344967852532750
979	2212	344967853313545
978	2225	344967854142678
984	2232	344967854941443
997	2227	344967855783852
1002	2210	344967856588245
991	2189	344967857393033
995	2174	344967858246631
1003	2173	344967859073833
1009	2186	344967859883044
1016	2209	344967860710541
1016	2232	344967861519742
1008	2248	344967862446226
1002	2255	344967863292128
991	2244	344967864132409
985	2221	344967864968223
981	2202	344967865881645
973	2188	344967866726073
966	2181	344967867544533
968	2181	344967868382207
972	2190	344967869214751
971	2205	344967870036013
962	2223	344967870852027
956	2235	344967871639485
953	2241	344967872534044
953	2234	344967873375446
947	2211	344967874120860
939	2196	344967874938601
942	2189	344967875743424
957	2194	344967876378692
969	2205	344967877226327
969	2224	344967878063987
959	2242	344967878902255
952	2253	344967879720418
944	2253	344967880506844
936	2239	344967881341781
928	2215	344967882163023
924	2201	344967883006125
929	2192	344967883841856
943	2195	344967884632047
963	2207	344967885500467
985	2226	344967886283215
1003	2236	344967887097999
1014	2244	344967887933897
1007	2240	344967888767856
1002	2224	344967889584855
1003	2204	344967890420014
1002	2191	344967891312806
1003	2185	344967892135689
1012	2190	344967892873378
1021	2205	344967893610453
1022	2221	344967894464036
1014	2236	344967895115460
1007	2241	344967895939435
1001	2236	344967896769113
995	2222	344967897615386
994	2198	344967898590229
991	2175	344967899466832
996	2169	344967900342466
1009	2171	344967901162789
1016	2186	344967901984021
1008	2206	344967902829774
1010	2227	344967903660856
1017	2242	344967904485264
1018	2242	344967905246473
1016	2233	344967906034214
1016	2210	344967906854201
1023	2194	344967907606400
1034	2184	344967908578275
1044	2186	344967909430743
1055	2200	344967910343546
1064	2222	344967911156982
1061	2242	344967911744893
1054	2251	344967912573064
1045	2255	344967913414190
1047	2248	344967914267545
1057	2232	344967915067047
1066	2213	344967915854861
1067	2214	344967916669852
1059	2226	344967917516236
1050	2240	344967918365235
1041	2259	344967919234527
1028	2275	344967920047032
1020	2289	344967920894011
1012	2292	344967921639906
1006	2283	344967922548565
1012	2259	344967923395605
1020	2240	344967924227997
1051	2226	344967925062219
1079	2219	344967925883917
1095	2221	344967926850632
1093	2230	344967927694198
1088	2251	344967928679780
1078	2266	344967929498451
1069	2269	344967930082410
1072	2262	344967930886670
1083	2244	344967931704099
1106	2220	344967932550387
1140	2207	344967933403846
1179	2202	344967934278708
1221	2210	344967935115943
1246	2228	344967935933913
1236	2245	344967936735375
1230	2261	344967937569763
1225	2265	344967938419554
1214	2257	344967939288671
1201	2233	344967940123448
1188	2213	344967940858757
1177	2202	344967941640473
1163	2204	344967942546847
1150	2220	344967943404294
1137	2243	344967944268061
1131	2267	344967945102535
1137	2278	344967945915336
1143	2283	344967946722049
1139	2282	344967947519929
1126	2264	344967948358614
1121	2244	344967949215911
1123	2243	344967950041181
1127	2251	344967950851574
1134	2269	344967951653376
1137	2298	344967952697532
1131	2319	344967953635911
1124	2330	344967954479950
1114	2330	344967955311014
1100	2321	344967956120200
1088	2301	344967956930610
1078	2278	344967957841270
1065	2269	344967958687899
1057	2273	344967959496704
1047	2290	344967960383870
1039	2309	344967961220576
1036	2324	344967962002892
1038	2333	344967962831692
1032	2335	344967963721386
1025	2322	344967964526981
1016	2298	344967965342996
1005	2278	344967966154649
995	2265	344967966958014
984	2264	344967967773419
977	2274	344967968634871
977	2292	344967969523392
972	2303	344967970174422
964	2305	344967971033806
954	2301	344967971830760
945	2287	344967972660681
935	2259	344967973628788
926	2235	344967974480059
921	2210	344967975311123
919	2189	344967976129110
915	2187	344967976965898
915	2204	344967977639218
914	2222	344967978621519
910	2233	344967979469225
905	2240	344967980312499
895	2236	344967981132672
886	2219	344967981953811
876	2198	344967982616074
872	2188	344967983587740
864	2192	344967984419520
862	2209	344967985183015
858	2229	344967986004691
862	2246	344967986732866
867	2257	344967987569071
866	2262	344967988413977
863	2254	344967989273752
854	2232	344967990085136
847	2212	344967990859389
838	2203	344967991666795
829	2203	344967992598943
819	2214	344967993535254
811	2232	344967994394845
804	2251	344967995111266
805	2262	344967995918790
810	2269	344967996730720
816	2264	344967997541072
817	2242	344967998378656
820	2222	344967999235689
815	2212	344968000059844
805	2212	344968000876006
802	2218	344968001685291
805	2237	344968002566215
804	2256	344968003369254
795	2271	344968004244104
788	2277	344968005053620
783	2271	344968005895305
783	2255	344968006720163
779	2232	344968007557446
779	2216	344968008403120
771	2217	344968009235143
770	2229	344968010053743
774	2250	344968010870331
773	2272	344968011684569
772	2286	344968012527682
773	2292	344968013368340
779	2291	344968014116968
788	2273	344968014956532
791	2251	344968015775895
784	2244	344968016588461
783	2247	344968017418667
790	2261	344968018262427
806	2278	344968019133333
820	2291	344968019963047
821	2305	344968020776426
817	2312	344968021570859
817	2312	344968022457966
813	2296	344968023483959
802	2265	344968024246936
796	2256	344968025046530
794	2254	344968025646837
800	2261	344968026493157
827	2277	344968027349071
857	2293	344968028155033
894	2306	344968028986747
926	2312	344968029791201
948	2312	344968030548700
960	2298	344968031398235
958	2272	344968032439215
951	2249	344968033313623
962	2239	344968034168685
980	2241	344968034984710
1001	2259	344968035808846
1026	2275	344968036627216
1057	2293	344968037386970
1090	2304	344968038239591
1122	2306	344968039082644
1130	2294	344968039891650
1121	2271	344968040718916
1123	2257	344968041545037
1133	2255	344968042457227
1143	2266	344968043307439
1155	2287	344968044143358
1164	2314	344968044978510
1169	2331	344968045789908
1161	2338	344968046592441
1151	2328	344968047432156
1139	2302	344968048347882
1126	2287	344968049315902
1119	2286	344968050169217
1120	2296	344968050972912
1121	2307	344968051751983
1112	2315	344968052588250
1101	2325	344968053429902
1090	2330	344968054296565
1080	2331	344968055104779
1072	2326	344968055909139
1069	2307	344968056716914
1066	2284	344968057549876
1070	2266	344968058388112
1080	2259	344968059253104
1087	2264	344968060061954
1086	2275	344968060882480
1080	2290	344968061639346
1072	2303	344968062561927
1061	2309	344968063412440
1063	2303	344968064341413
1067	2280	344968065176370
1074	2254	344968065929311
1077	2239	344968066719683
1083	2230	344968067519870
1091	2231	344968068366952
1099	2245	344968069297061
1096	2267	344968070056719
1088	2283	344968070878856
1078	2288	344968071701530
1068	2275	344968072570402
1069	2253	344968073416673
1076	2235	344968074271973
1091	2223	344968075056841
1101	2218	344968075839814
1105	2218	344968076495290
1107	2224	344968077356044
1104	2234	344968078166318
1102	2237	344968078993558
1094	2238	344968079793886
1083	2241	344968080495944
1079	2232	344968081350713
1074	2212	344968082180582
1069	2189	344968082998188
1073	2177	344968083827550
1086	2177	344968084617658
1090	2191	344968085454579
1092	2212	344968086333615
1090	2242	344968087161223
1081	2267	344968087969223
1069	2280	344968088742243
1059	2272	344968089570912
1049	2249	344968090407565
1036	2230	344968091248185
1029	2218	344968092069709
1026	2223	344968092911647
1027	2243	344968093744619
1029	2270	344968094552123
1023	2295	344968095389727
1014	2314	344968096195400
1007	2323	344968097021467
996	2314	344968097638757
988	2293	344968098602284
977	2280	344968099248251
971	2271	344968100092910
965	2271	344968100914708
967	2283	344968101747371
975	2305	344968102579085
973	2320	344968103377326
966	2325	344968104236446
959	2324	344968105059672
956	2310	344968105900109
963	2292	344968106739098
967	2274	344968107497430
960	2259	344968108350927
952	2242	344968109112692
950	2250	344968109928772
953	2275	344968110746837
952	2297	344968111581584
943	2312	344968112486825
933	2313	344968113349080
924	2305	344968114169259
915	2287	344968114983494
919	2265	344968115802804
925	2250	344968116563100
922	2243	344968117397138
916	2245	344968117994918
914	2256	344968118843990
918	2273	344968119656393
921	2286	344968120464513
929	2293	344968121297311
936	2289	344968122109871
931	2276	344968122926592
923	2252	344968123770596
918	2235	344968124574025
916	2229	344968125405896
918	2237	344968126233579
923	2254	344968127021664
926	2271	344968127846128
930	2286	344968128696361
938	2295	344968129523979
945	2290	344968130375482
937	2268	344968131232427
927	2247	344968132052994
918	2231	344968132739270
915	2222	344968133665404
907	2217	344968134524587
899	2230	344968135378816
895	2252	344968136195674
896	2270	344968137028480
892	2280	344968137641080
896	2273	344968138640616
895	2255	344968139488698
891	2232	344968140336844
886	2221	344968141097446
881	2215	344968141912919
878	2214	344968142724028
869	2217	344968143659037
873	2223	344968144613985
887	2228	344968145511307
890	2227	344968146365957
890	2222	344968147124559
888	2212	344968147930282
880	2193	344968148778473
870	2171	344968149590220
869	2158	344968150421800
879	2159	344968151249774
893	2175	344968152060078
902	2191	344968152872345
901	2207	344968153718714
898	2214	344968154526938
899	2218	344968155404724
891	2209	344968156322321
881	2186	344968157133107
874	2162	344968157943919
871	2150	344968158787793
875	2156	344968159597163
884	2172	344968160434329
887	2194	344968161255551
883	2209	344968162072630
877	2215	344968162887735
871	2219	344968163729723
865	2208	344968164538004
856	2186	344968165372775
852	2170	344968166181234
858	2158	344968166970414
867	2154	344968167778769
875	2163	344968168653480
878	2180	344968169495083
878	2197	344968170319012
870	2212	344968171147164
860	2214	344968171964836
852	2206	344968172784129
848	2184	344968173640228
844	2164	344968174274577
841	2154	344968175064158
841	2148	344968175874130
845	2155	344968176696655
850	2172	344968177524887
853	2194	344968178394762
867	2206	344968179265240
870	2208	344968180082760
874	2199	344968180894644
871	2180	344968181639489
864	2157	344968182517706
859	2146	344968183383305
862	2141	344968184206812
875	2146	344968185016364
896	2160	344968185845762
927	2176	344968186653477
959	2188	344968187487245
982	2193	344968188318837
991	2188	344968189145315
982	2172	344968189953842
978	2149	344968190780363
989	2136	344968191585245
1010	2137	344968192486048
1032	2150	344968193338216
1052	2173	344968194169059
1059	2195	344968194976907
1058	2213	344968195798251
1049	2219	344968196606663
1054	2204	344968197434590
1066	2183	344968198112233
1071	2174	344968198952748
1077	2172	344968199751764
1092	2172	344968200650159
1116	2173	344968201515584
1127	2180	344968202435237
1128	2192	344968203294079
1118	2200	344968204135207
1106	2202	344968204956016
1103	2197	344968205534059
1104	2185	344968206385773
1108	2161	344968207201962
1119	2143	344968208030485
1131	2134	344968208863842
1141	2133	344968209637221
1158	2147	344968210487153
1169	2156	344968211323214
1168	2163	344968212139718
1161	2165	344968212984795
1153	2162	344968213758825
1151	2152	344968214580990
1154	2136	344968215423578
1163	2114	344968216265588
1176	2100	344968217085413
1191	2100	344968217924453
1197	2112	344968218768204
1199	2130	344968219589554
1197	2149	344968220426358
1192	2164	344968221269021
1186	2169	344968222087824
1175	2158	344968222925806
1167	2136	344968223761127
1161	2121	344968224579994
1162	2114	344968225443337
1163	2121	344968226248986
1162	2138	344968227056369
1157	2158	344968227854193
1161	2178	344968228625238
1167	2192	344968229469559
1170	2196	344968230378625
1171	2180	344968231191079
1165	2159	344968232008285
1156	2146	344968232819276
1151	2149	344968233640643
1142	2161	344968234491370
1138	2178	344968235355395
1143	2192	344968236176047
1159	2205	344968236877569
1183	2216	344968237716772
1203	2219	344968238657331
1193	2204	344968239504103
1187	2180	344968240340991
1184	2164	344968241148913
1175	2156	344968241963081
1164	2159	344968242794837
1161	2178	344968243670888
1169	2196	344968244496143
1177	2212	344968245256913
1181	2221	344968246074005
1178	2222	344968246878862
1166	2210	344968247700917
1170	2184	344968248654353
1179	2169	344968249521411
1179	2160	344968250378304
1181	2160	344968251184177
1191	2171	344968251992302
1208	2187	344968252825959
1209	2198	344968253670029
1201	2207	344968254520076
1207	2206	344968255362440
1218	2190	344968256182624
1228	2165	344968257016130
1230	2148	344968257888688
1228	2136	344968258729679
1222	2132	344968259550878
1213	2130	344968260394692
1202	2134	344968261214989
1189	2144	344968262035733
1176	2153	344968262844404
1164	2163	344968263759792
1160	2157	344968264580779
1161	2137	344968265389632
1159	2124	344968266189562
1154	2121	344968267001105
1151	2122	344968267840347
1148	2134	344968268678310
1151	2148	344968269520839
1158	2162	344968270355198
1165	2172	344968271160135
1175	2172	344968271974557
1173	2164	344968272801702
1162	2140	344968273667038
1160	2121	344968274505148
1162	2109	344968275317548
1162	2110	344968276123656
1163	2122	344968276939371
1162	2142	344968277745579
1156	2164	344968278656742
1152	2175	344968279494042
1140	2178	344968280340815
1135	2168	344968281113954
1144	2148	344968281919154
1158	2129	344968282518822
1172	2121	344968283371791
1178	2122	344968284211937
1167	2127	344968284881089
1163	2140	344968285712722
1164	2155	344968286619410
1174	2173	344968287490890
1191	2185	344968288335933
1211	2184	344968289163797
1238	2167	344968290017154
1271	2144	344968290840542
1284	2126	344968291657026
1286	2122	344968292603797
1281	2132	344968293432923
1296	2153	344968294307888
1314	2176	344968295015663
1327	2188	344968295830390
1334	2192	344968296638893
1332	2186	344968297469714
1328	2169	344968298306670
1321	2144	344968299132944
1307	2132	344968299961840
1302	2131	344968300782236
1302	2138	344968301591520
1300	2152	344968302510610
1298	2170	344968303393458
1295	2182	344968304221913
1293	2183	344968305034484
1290	2176	344968305637711
1289	2162	344968306475972
1286	2141	344968307287053
1278	2124	344968308060899
1269	2123	344968308887588
1255	2133	344968309641268
1244	2148	344968310479357
1244	2167	344968311321139
1252	2180	344968312158534
1268	2179	344968313003502
1275	2168	344968313643706
1278	2153	344968314511247
1273	2130	344968315359335
1265	2110	344968316174082
1252	2103	344968317013536
1243	2104	344968317837164
1231	2117	344968318773268
1229	2130	344968319593306
1230	2146	344968320369365
1227	2154	344968321149331
1221	2158	344968321989160
1220	2154	344968322808991
1215	2132	344968323693144
1203	2115	344968324534487
1192	2107	344968325358526
1192	2107	344968326186822
1192	2117	344968327020945
1184	2135	344968327839222
1178	2153	344968328677347
1173	2160	344968329545456
1167	2160	344968330394255
1167	2143	344968331213136
1162	2119	344968332023732
1149	2099	344968332842909
1137	2089	344968333641532
1130	2090	344968334508417
1120	2097	344968335353876
1114	2110	344968336169042
1106	2124	344968336982420
1117	2137	344968337805358
1131	2142	344968338680191
1146	2136	344968339531299
1155	2116	344968340368532
1153	2094	344968341175055
1139	2080	344968342007433
1128	2082	344968342833918
1120	2095	344968343670389
1127	2118	344968344500321
1153	2139	344968345343926
1188	2155	344968346147178
1206	2161	344968346972496
1209	2156	344968347780460
1197	2136	344968348671868
1196	2114	344968349542508
1188	2106	344968350383013
1175	2103	344968351190816
1169	2115	344968352031560
1158	2137	344968352855148
1148	2159	344968353693416
1134	2177	344968354544155
1127	2181	344968355388756
1122	2169	344968356207781
1125	2146	344968357014238
1135	2125	344968357638589
1143	2108	344968358607479
1142	2099	344968359463171
1135	2102	344968360296185
1138	2112	344968361104867
1140	2125	344968361906594
1149	2141	344968362713366
1163	2148	344968363711037
1175	2144	344968364540710
1182	2129	344968365377172
1186	2107	344968366196307
1198	2089	344968367013412
1208	2081	344968367829174
1219	2083	344968368790432
1218	2098	344968369606315
1207	2121	344968370449385
1210	2142	344968371295949
1224	2149	344968372130589
1238	2150	344968372959443
1250	2146	344968373797938
1273	2124	344968374665944
1303	2111	344968375510683
1318	2115	344968376293949
1317	2129	344968377127632
1308	2151	344968377950139
1294	2169	344968378790767
1289	2184	344968379629937
1286	2189	344968380401116
1283	2185	344968381211638
1282	2169	344968382017675
1275	2148	344968382829169
1265	2138	344968383684777
1250	2138	344968384539984
1236	2150	344968385374842
1224	2164	344968386121240
1213	2183	344968386931769
1201	2195	344968387740742
1187	2196	344968388671461
1174	2188	344968389522829
1161	2168	344968390368253
1151	2155	344968391172417
1147	2147	344968392002856
1152	2151	344968392828050
1165	2165	344968393683014
1176	2182	344968394536098
1193	2197	344968395387705
1216	2206	344968396211798
1230	2213	344968397043056
1237	2208	344968397639810
1238	2195	344968398621835
1228	2171	344968399464884
1226	2158	344968400316066
1249	2175	344968401138234
1283	2208	344968401978963
1314	2243	344968402809593
1344	2266	344968403697960
1365	2276	344968404553564
1365	2278	344968405378323
1353	2269	344968406174096
1343	2246	344968406982855
1336	2227	344968407802684
1341	2218	344968408636777
1356	2220	344968409497725
1372	2239	344968410390037
1381	2265	344968411208581
1383	2288	344968411987109
1384	2303	344968412803868
1374	2303	344968413688402
1377	2288	344968414539408
1388	2264	344968415376707
1398	2251	344968416181102
1409	2251	344968417006229
1420	2257	344968417639428
1414	2261	344968418476354
1399	2268	344968419319395
1384	2272	344968420050583
1372	2277	344968420860364
1368	2277	344968421688208
1367	2270	344968422593583
1365	2251	344968423442903
1359	2226	344968424426618
1360	2208	344968425279385
1356	2203	344968426087766
1355	2205	344968426924817
1349	2216	344968427684851
1335	2233	344968428724821
1322	2239	344968429555690
1312	2237	344968430394431
1302	2221	344968431205816
1292	2203	344968431973946
1285	2181	344968432773794
1282	2160	344968433685279
1270	2151	344968434541721
1257	2154	344968435377392
1246	2166	344968436186289
1247	2177	344968437007798
1252	2186	344968437830992
1260	2183	344968438702307
1266	2170	344968439540769
1261	2154	344968440389438
1250	2133	344968441206760
1242	2112	344968442042231
1239	2102	344968442867982
1237	2104	344968443703007
1236	2117	344968444542130
1238	2133	344968445393246
1236	2144	344968446211731
1223	2146	344968447044737
1215	2136	344968447862171
1217	2114	344968448663788
1215	2094	344968449539902
1210	2079	344968450392077
1207	2074	344968451202083
1202	2080	344968452025903
1192	2091	344968452834791
1180	2100	344968453644074
1166	2102	344968454507528
1154	2097	344968455345367
1143	2085	344968456153522
1134	2068	344968456920527
1122	2051	344968457538643
1112	2035	344968458383228
1110	2018	344968459233551
1127	2019	344968460039310
1158	2036	344968460841460
1181	2054	344968461607664
1208	2074	344968462507882
1219	2083	344968463352794
1212	2079	344968464194200
1216	2061	344968465020029
1243	2040	344968465810561
1292	2022	344968466622200
1372	2009	344968467463486
1433	2010	344968468309570
1436	2020	344968469163182
1429	2036	344968469983657
1427	2054	344968470808456
1429	2069	344968471621188
1430	2076	344968472524222
1430	2074	344968473156925
1423	2056	344968474022253
1416	2043	344968474839285
1415	2042	344968475658802
1414	2052	344968476284446
1409	2061	344968477102354
1395	2077	344968477904481
1381	2090	344968478739994
1374	2099	344968479550274
1365	2104	344968480412685
1351	2098	344968481173941
1338	2085	344968481983484
1333	2062	344968482795054
1328	2047	344968483767624
1320	2047	344968484534066
1314	2059	344968485381200
1318	2078	344968486185703
1333	2097	344968487004720
1340	2109	344968487815157
1338	2112	344968488681141
1333	2104	344968489526866
1323	2085	344968490366220
1313	2061	344968491172233
1315	2045	344968491981138
1340	2043	344968492822964
1384	2052	344968493713710
1423	2067	344968494562132
1438	2082	344968495418019
1428	2089	344968496277041
1440	2098	344968497040354
1452	2093	344968497638441
1462	2082	344968498485987
1467	2060	344968499166279
1469	2052	344968499993056
1469	2045	344968500833129
1462	2045	344968501651738
1449	2060	344968502559542
1433	2075	344968503288942
1422	2081	344968504125719
1420	2079	344968504946471
1422	2069	344968505784416
1409	2053	344968506598213
1394	2032	344968507435804
1387	2011	344968508282131
1372	1995	344968509114356
1362	1990	344968509918638
1350	1997	344968510748134
1338	2012	344968511556803
1337	2032	344968512462043
1336	2043	344968513472060
1329	2044	344968514336777
1316	2024	344968515157425
1306	2006	344968515792303
1305	1996	344968516614914
1301	1988	344968517461438
1295	1995	344968518304332
1283	2012	344968519140380
1268	2031	344968519962965
1257	2044	344968520722586
1249	2052	344968521559332
1252	2052	344968522462283
1247	2039	344968523330907
1234	2018	344968524162459
1232	2006	344968524972345
1226	2004	344968525638362
1221	2005	344968526299284
1220	2011	344968527099553
1224	2025	344968527934940
1223	2041	344968528570920
1214	2053	344968529413925
1209	2057	344968530214880
1208	2050	344968531024424
1202	2036	344968531831296
1207	2015	344968532560862
1208	2004	344968533403337
1197	2001	344968534241097
1184	2006	344968535083901
1182	2021	344968535900921
1183	2037	344968536683912
1173	2052	344968537542436
1159	2061	344968538568750
1153	2057	344968539418336
1153	2036	344968540249233
1154	2018	344968541056220
1151	2005	344968541869505
1172	2004	344968542679462
1206	2014	344968543642416
1222	2025	344968544478960
1225	2036	344968545337109
1217	2046	344968546153180
1217	2052	344968546968424
1238	2051	344968547789467
1249	2033	344968548711239
1238	2015	344968549601438
1225	2006	344968550472884
1217	2002	344968551307622
1205	2007	344968552125862
1195	2020	344968552942686
1183	2028	344968553637701
1181	2030	344968554494330
1192	2029	344968555368623
1196	2026	344968556187775
1185	2022	344968557009239
1180	2012	344968557853976
1175	1996	344968558697404
1178	1991	344968559544486
1184	2010	344968560407149
1188	2040	344968561224041
1191	2067	344968562042454
1198	2085	344968562881559
1198	2087	344968563709299
1189	2076	344968564542355
1188	2057	344968565358110
1194	2054	344968566166110
1191	2055	344968566973070
1182	2052	344968567797090
1168	2060	344968568781325
1156	2070	344968569573811
1151	2077	344968570455158
1174	2081	344968571309424
1218	2082	344968572045799
1240	2078	344968572884257
1246	2058	344968573727876
1241	2041	344968574570283
1227	2030	344968575433430
1221	2029	344968576252101
1213	2033	344968577065841
1199	2044	344968577839626
1191	2060	344968578668120
1193	2074	344968579515651
1196	2078	344968580372768
1200	2073	344968581184409
1199	2063	344968581994433
1195	2043	344968582819432
1193	2024	344968583706550
1191	2022	344968584547628
1187	2041	344968585314029
1184	2063	344968586126653
1176	2085	344968586713286
1167	2104	344968587566308
1155	2120	344968588407720
1142	2120	344968589187731
1132	2106	344968589995926
1124	2084	344968590796809
1122	2068	344968591602149
1110	2066	344968592774563
1100	2081	344968593616561
1091	2098	344968594455652
1080	2116	344968595085960
1074	2126	344968595905117
1065	2136	344968596725999
1057	2135	344968597574712
1063	2120	344968598426326
1071	2095	344968599195810
1064	2078	344968600033926
1060	2067	344968600854318
1066	2068	344968601638458
1063	2081	344968602576595
1053	2095	344968603334373
1050	2101	344968604172981
1039	2111	344968604984768
1032	2115	344968605798247
1027	2117	344968606610300
1019	2105	344968607461262
1013	2086	344968608298404
1023	2078	344968609125837
1036	2081	344968609918381
1053	2090	344968610731070
1071	2107	344968611564985
1071	2123	344968612477496
1072	2133	344968613324613
1086	2134	344968614149560
1096	2124	344968614977142
1100	2102	344968615781112
1103	2082	344968616592173
1101	2068	344968617431281
1096	2067	344968618234701
1089	2074	344968619068426
1079	2093	344968619909061
1066	2113	344968620731892
1058	2129	344968621574370
1054	2136	344968622481201
1061	2125	344968623335588
1073	2101	344968624172914
1081	2083	344968624983756
1089	2077	344968625639611
1098	2080	344968626303226
1107	2087	344968627138052
1101	2103	344968627965255
1092	2117	344968628770163
1083	2129	344968629585313
1104	2135	344968630424921
1139	2133	344968631255453
1153	2117	344968632083510
1149	2094	344968632798824
1138	2079	344968633721811
1133	2074	344968634555869
1123	2082	344968635403648
1119	2095	344968636220964
1107	2112	344968637056949
1099	2126	344968637898161
1102	2136	344968638736125
1110	2132	344968639579172
1102	2111	344968640423464
1104	2092	344968641054825
1114	2083	344968641864221
1131	2077	344968642689209
1149	2083	344968643658152
1151	2098	344968644501511
1152	2109	344968645351486
1154	2119	344968646192987
1150	2121	344968647026560
1140	2114	344968647837036
1133	2094	344968648815749
1132	2071	344968649623445
1130	2051	344968650462414
1126	2041	344968651294517
1128	2040	344968652114875
1145	2048	344968652936466
1161	2061	344968653766256
1156	2075	344968654593609
1146	2091	344968655429848
1135	2102	344968656235261
1127	2094	344968657041312
1116	2072	344968657637908
1110	2062	344968658485143
1109	2058	344968659351545
1110	2063	344968660171698
1119	2075	344968660999400
1123	2088	344968661696644
1126	2099	344968662600413
1126	2106	344968663458126
1139	2107	344968664340681
1153	2099	344968665160936
1168	2078	344968665832215
1174	2061	344968666668257
1172	2047	344968667456289
1161	2045	344968668297769
1168	2059	344968669152201
1188	2083	344968669957026
1206	2109	344968670780319
1212	2123	344968671595869
1245	2129	344968672507601
1268	2115	344968673333371
1273	2092	344968674166587
1264	2076	344968674995214
1264	2069	344968675815261
1271	2071	344968676627935
1276	2086	344968677477139
1278	2102	344968678294630
1280	2117	344968679147515
1281	2128	344968679967162
1279	2130	344968680688644
1285	2120	344968681561073
1289	2104	344968682447460
1291	2083	344968683266572
1293	2074	344968684100369
1284	2082	344968684918603
1273	2107	344968685639541
1271	2134	344968686605464
1278	2151	344968687433247
1287	2159	344968688245799
1290	2156	344968688948926
1288	2145	344968689760572
1276	2124	344968690578074
1270	2107	344968691464084
1259	2104	344968692389972
1247	2115	344968693226801
1238	2130	344968694081116
1234	2145	344968694908771
1236	2150	344968695726930
1233	2148	344968696576834
1219	2142	344968697340232
1206	2132	344968698159584
1194	2115	344968698988027
1187	2093	344968699817879
1177	2079	344968700638104
1165	2079	344968701499641
1154	2099	344968702421032
1149	2131	344968703232064
1140	2147	344968703966254
1131	2154	344968704635741
1123	2154	344968705460901
1125	2145	344968706314935
1129	2124	344968707124402
1132	2107	344968707903460
1132	2096	344968708726482
1128	2096	344968709566434
1126	2108	344968710414728
1116	2127	344968711241090
1121	2142	344968712049683
1137	2156	344968712869019
1161	2166	344968713701208
1160	2168	344968714538842
1158	2159	344968715371527
1169	2137	344968716207351
1177	2123	344968717025445
1175	2121	344968717639410
1179	2132	344968718486521
1171	2164	344968719354707
1172	2193	344968719952078
1172	2205	344968720717008
1168	2213	344968721848965
1161	2218	344968722679486
1165	2204	344968723680621
1159	2190	344968724537304
1146	2192	344968725447708
1139	2197	344968726203189
1141	2203	344968727013717
1149	2203	344968727809001
1154	2202	344968728586440
1152	2197	344968729430717
1143	2189	344968730256452
1131	2180	344968731089974
1121	2167	344968731906755
1112	2145	344968732732025
1096	2126	344968733721062
1089	2123	344968734567240
1081	2131	344968735418394
1073	2144	344968736230180
1069	2149	344968737015672
1067	2149	344968737641574
1061	2145	344968738509053
1052	2137	344968739381516
1048	2118	344968740201579
1043	2095	344968741038560
1036	2080	344968741864348
1028	2073	344968742686505
1013	2081	344968743673795
1002	2096	344968744523315
993	2114	344968745379610
984	2133	344968746097440
976	2143	344968746884885
970	2148	344968747723357
967	2132	344968748721612
963	2115	344968749586400
961	2116	344968750441136
954	2134	344968751175785
945	2160	344968751994890
937	2189	344968752819971
929	2205	344968753736075
921	2201	344968754595546
920	2194	344968755446098
922	2182	344968756307077
936	2161	344968757125956
944	2140	344968757911082
938	2130	344968758763804
931	2129	344968759582684
934	2137	344968760546980
939	2149	344968761316187
951	2160	344968762126986
963	2166	344968762939338
964	2167	344968763706657
962	2158	344968764543895
958	2135	344968765390879
947	2118	344968766194745
946	2100	344968767006756
955	2082	344968767959953
968	2080	344968768720116
981	2083	344968769562361
988	2092	344968770400005
984	2108	344968771225912
972	2119	344968772039310
966	2118	344968772865560
963	2102	344968773640112
966	2081	344968774497631
969	2063	344968775340243
974	2055	344968776176386
977	2061	344968777000162
977	2076	344968777822233
977	2093	344968778734619
973	2103	344968779583975
973	2105	344968780474862
965	2092	344968781336098
958	2069	344968782150349
952	2053	344968782965030
945	2043	344968783814032
950	2037	344968784570568
954	2039	344968785428235
957	2052	344968786232423
955	2067	344968787061917
946	2075	344968787892622
937	2077	344968788846997
931	2074	344968789641367
921	2055	344968790492077
913	2033	344968791329125
900	2021	344968792126078
892	2022	344968792958661
883	2037	344968793811197
875	2052	344968794629472
866	2068	344968795447342
859	2081	344968796312832
857	2091	344968797086498
859	2091	344968797908241
860	2077	344968798737716
859	2060	344968799614667
848	2052	344968800462500
841	2053	344968801195654
834	2063	344968802009019
836	2085	344968802821585
838	2104	344968803728771
836	2112	344968804634588
838	2110	344968805446196
831	2103	344968806274645
820	2085	344968807094619
812	2064	344968807897056
807	2044	344968808747563
800	2041	344968809580974
791	2043	344968810423863
782	2053	344968811234808
777	2077	344968812049571
770	2103	344968812873042
763	2118	344968813641008
761	2123	344968814491845
756	2116	344968815330235
749	2096	344968816130463
745	2078	344968816957210
737	2079	344968817771042
733	2098	344968818808111
726	2128	344968819622735
722	2165	344968820433695
719	2194	344968821258527
715	2198	344968822071107
711	2188	344968822904319
710	2167	344968823732015
702	2148	344968824570268
698	2134	344968825404082
691	2126	344968826207766
684	2138	344968827017198
679	2164	344968827828598
671	2189	344968828726083
661	2207	344968829583978
658	2217	344968830438008
657	2214	344968831273305
653	2197	344968832091317
651	2182	344968832691189
649	2180	344968833686865
645	2195	344968834507121
644	2217	344968835374740
642	2243	344968836151146
645	2268	344968836928809
639	2290	344968837707758
630	2286	344968838658076
625	2262	344968839463838
629	2242	344968840247024
632	2228	344968840797629
632	2219	344968841621883
625	2212	344968842494187
624	2219	344968843352227
624	2237	344968844164729
622	2258	344968844923711
623	2269	344968845729795
626	2278	344968846579263
627	2278	344968847428312
630	2266	344968848262623
632	2241	344968849104907
633	2233	344968849930387
628	2227	344968850744692
624	2236	344968851590204
634	2254	344968852508683
643	2270	344968853331354
650	2283	344968854168859
653	2288	344968854987975
657	2279	344968855810481
653	2259	344968856631589
646	2234	344968857461370
645	2209	344968858285150
645	2192	344968859083936
648	2191	344968859859950
654	2199	344968860655997
663	2211	344968861467319
669	2218	344968862242857
677	2216	344968863018712
677	2215	344968863672109
674	2206	344968864477055
674	2186	344968865309214
675	2170	344968866088303
671	2151	344968866872521
669	2129	344968867748279
668	2124	344968868680606
667	2133	344968869495397
666	2144	344968870318407
663	2155	344968871110488
662	2159	344968871909627
665	2154	344968872642682
664	2144	344968873467993
664	2124	344968874204385
660	2107	344968875052252
655	2106	344968875863937
653	2117	344968876657917
656	2142	344968877497742
654	2167	344968878330350
650	2185	344968879168503
644	2190	344968880012246
650	2190	344968880838579
668	2176	344968881664590
698	2152	344968882464700
723	2142	344968883290295
746	2132	344968884136811
747	2133	344968884976557
739	2151	344968885787954
732	2177	344968886450747
725	2195	344968887268908
720	2208	344968888080130
716	2216	344968888924279
712	2208	344968889755936
706	2186	344968890631800
700	2168	344968891469819
692	2160	344968892275970
684	2161	344968893101007
681	2171	344968893934568
677	2188	344968894766231
671	2211	344968895658112
668	2233	344968896495732
661	2236	344968897378031
652	2214	344968898202894
650	2195	344968899040678
645	2180	344968899849931
638	2172	344968900643349
631	2173	344968901460672
624	2181	344968902358963
617	2195	344968903149042
612	2209	344968903962415
608	2221	344968904696281
608	2227	344968905306969
609	2222	344968906092471
605	2205	344968906902986
602	2184	344968907699079
601	2168	344968908680685
602	2162	344968909550426
594	2174	344968910398044
589	2198	344968911227252
584	2214	344968912034183
577	2217	344968912847403
571	2219	344968913649816
565	2220	344968914507702
561	2209	344968915343107
553	2189	344968916148822
546	2180	344968916980833
541	2186	344968917796144
540	2203	344968918731393
544	2224	344968919567460
550	2244	344968920404318
550	2255	344968921214188
547	2256	344968922043729
542	2243	344968922868650
535	2219	344968923752998
529	2204	344968924609016
523	2195	344968925452041
516	2196	344968926208198
511	2200	344968927043156
507	2205	344968927861914
510	2211	344968928858205
512	2213	344968929707241
508	2214	344968930336727
503	2209	344968931159636
499	2195	344968931972479
493	2171	344968932792421
490	2146	344968933641442
491	2129	344968934515159
491	2117	344968935360190
491	2115	344968936180876
489	2122	344968936830845
486	2134	344968937657528
479	2154	344968938516639
476	2163	344968939397046
480	2168	344968940208266
491	2157	344968940836033
489	2139	344968941652401
485	2126	344968942559396
482	2127	344968943402803
478	2142	344968944225417
472	2158	344968944961743
473	2173	344968945774630
475	2189	344968946602892
479	2198	344968947435478
483	2192	344968948241656
485	2172	344968949060700
482	2152	344968949650880
480	2143	344968950489181
475	2141	344968951217037
474	2152	344968952039207
478	2171	344968952866909
484	2195	344968953755937
495	2217	344968954604832
513	2239	344968955372552
524	2240	344968956195553
524	2219	344968957005245
519	2207	344968957645938
516	2198	344968958499617
513	2196	344968959366545
512	2206	344968960177407
511	2224	344968960939933
511	2241	344968961609684
509	2252	344968962515033
506	2253	344968963377641
500	2246	344968964198787
495	2225	344968965016327
489	2199	344968965820295
483	2175	344968966634624
480	2155	344968967487068
477	2151	344968968340451
478	2165	344968969181230
483	2183	344968969978521
484	2199	344968970810313
487	2214	344968971628158
487	2213	344968972542519
485	2204	344968973385312
483	2184	344968974125248
477	2165	344968974945605
472	2154	344968975758273
469	2156	344968976491005
471	2166	344968977342879
470	2186	344968978179289
467	2201	344968979021195
466	2210	344968979848976
461	2208	344968980661503
456	2200	344968981504098
451	2181	344968982409567
447	2157	344968983237630
442	2145	344968984065123
440	2144	344968984861537
439	2155	344968985691117
438	2176	344968986642741
432	2197	344968987493284
428	2209	344968988295529
423	2211	344968989126785
423	2200	344968989940838
427	2180	344968990767111
425	2160	344968991594300
420	2158	344968992600944
417	2170	344968993372362
418	2187	344968994221977
418	2210	344968994999439
418	2230	344968995819612
415	2239	344968996629378
411	2235	344968997467021
410	2229	344968998296670
406	2218	344968999125533
407	2196	344968999941262
403	2184	344969000702341
407	2192	344969001542272
414	2220	344969002445722
424	2254	344969003277022
427	2273	344969004112064
439	2288	344969004922232
461	2297	344969005640517
471	2287	344969006479041
469	2267	344969007288188
465	2241	344969008112429
459	2220	344969008943248
455	2219	344969009616533
456	2231	344969010484056
457	2251	344969011305416
456	2265	344969012121534
452	2269	344969012939068
451	2268	344969013642632
448	2256	344969014497007
444	2233	344969015360797
443	2210	344969016179724
445	2190	344969017001270
449	2182	344969017816399
456	2187	344969018754991
466	2203	344969019605842
474	2220	344969020462757
477	2229	344969021280953
481	2227	344969022108454
476	2215	344969022940633
473	2193	344969023767940
468	2176	344969024573313
463	2167	344969025427016
461	2164	344969026228726
463	2175	344969027035013
466	2190	344969027838206
468	2204	344969028750068
465	2214	344969029590075
461	2212	344969030362405
462	2204	344969031170856
463	2186	344969031980041
467	2165	344969032719933
472	2148	344969033681663
479	2144	344969034487291
487	2158	344969035388511
492	2178	344969036263844
495	2196	344969037028946
499	2214	344969037641168
502	2223	344969038484361
504	2223	344969039308103
500	2211	344969040111249
496	2189	344969040847625
491	2180	344969041661549
484	2175	344969042579992
479	2180	344969043425259
476	2199	344969044251741
476	2221	344969044966098
476	2235	344969045639664
472	2243	344969046475427
467	2249	344969047099418
463	2241	344969047904881
462	2219	344969048740242
466	2201	344969049607915
470	2198	344969050472937
476	2202	344969051221203
483	2214	344969052052044
496	2229	344969052881086
508	2242	344969053776657
513	2249	344969054682533
515	2244	344969055351242
512	2231	344969056171374
507	2208	344969056982813
502	2187	344969057651464
501	2174	344969058503094
500	2162	344969059392519
507	2159	344969060210880
509	2167	344969061033557
503	2178	344969061857887
501	2191	344969062687803
502	2198	344969063538987
496	2191	344969064403254
498	2171	344969065213504
498	2149	344969065832498
497	2138	344969066663537
500	2136	344969067495466
504	2145	344969068276313
510	2163	344969069112091
516	2179	344969069924882
522	2189	344969070735374
526	2193	344969071588783
526	2193	344969072541723
523	2176	344969073572688
515	2153	344969074420980
511	2145	344969075229798
507	2152	344969076041983
507	2165	344969076866209
510	2180	344969077680628
516	2191	344969078345193
515	2195	344969079198538
512	2191	344969080018029
509	2179	344969080811462
505	2162	344969081628164
502	2141	344969082489813
502	2121	344969083310059
504	2111	344969084167844
510	2115	344969084986608
516	2124	344969085640388
521	2133	344969086451673
521	2142	344969087269200
519	2149	344969088085916
515	2151	344969088726398
512	2146	344969089577021
506	2131	344969090434490
499	2112	344969091244750
498	2092	344969092051820
507	2089	344969092849865
522	2097	344969093638993
533	2109	344969094481889
536	2122	344969095289504
536	2133	344969096121537
531	2141	344969096950727
527	2142	344969097765089
526	2127	344969098726578
529	2106	344969099581064
539	2089	344969100419043
551	2087	344969101197026
564	2096	344969102008751
577	2118	344969102823834
589	2150	344969103761906
596	2162	344969104602498
594	2149	344969105351593
589	2132	344969106114193
588	2110	344969106937139
588	2092	344969107754041
591	2072	344969108708773
597	2060	344969109477727
600	2048	344969110295998
598	2041	344969111108863
592	2051	344969111928168
586	2064	344969112755454
577	2081	344969113725464
572	2080	344969114577960
567	2066	344969115481064
564	2047	344969116287733
561	2034	344969117096680
562	2025	344969117849998
567	2032	344969118760214
575	2049	344969119625943
580	2063	344969120461837
580	2072	344969121301714
580	2081	344969121979571
575	2086	344969122808687
569	2081	344969123767279
562	2060	344969124642307
559	2050	344969125496451
567	2053	344969126234133
576	2063	344969127018694
584	2085	344969127846105
589	2108	344969128725538
589	2123	344969129577957
584	2129	344969130359484
577	2122	344969131190487
573	2107	344969132011899
573	2084	344969132847059
573	2065	344969133774797
573	2061	344969134491610
578	2066	344969135298498
583	2074	344969136098588
588	2089	344969136901848
590	2103	344969137630807
589	2112	344969138493918
584	2112	344969139317815
578	2098	344969140128147
573	2077	344969140707742
568	2061	344969141550048
564	2045	344969142451548
559	2034	344969143278936
557	2041	344969144109257
557	2058	344969144923501
559	2075	344969145756258
558	2088	344969146597539
553	2092	344969147451822
549	2081	344969148287009
547	2061	344969149105077
545	2045	344969149915177
544	2037	344969150751754
547	2041	344969151593859
552	2057	344969152618413
555	2068	344969153485891
554	2077	344969154359070
553	2086	344969155181382
552	2088	344969156021955
549	2073	344969156845382
542	2051	344969157491685
539	2039	344969158513755
533	2038	344969159361150
534	2047	344969160175656
535	2063	344969160981778
539	2082	344969161611677
536	2095	344969162531068
531	2109	344969163400476
526	2116	344969164213567
527	2100	344969165032452
528	2083	344969165739788
531	2078	344969166586540
539	2079	344969167436615
546	2093	344969168275584
553	2108	344969169111259
558	2132	344969169987002
557	2154	344969170822031
556	2163	344969171641911
554	2164	344969172525281
550	2148	344969173368408
544	2127	344969174086848
541	2113	344969174910047
539	2106	344969175721488
540	2110	344969176560965
546	2121	344969177402204
546	2141	344969178233390
545	2151	344969179060526
540	2153	344969179870808
534	2158	344969180619708
528	2159	344969181513575
531	2145	344969182434437
537	2124	344969183263394
542	2116	344969184103364
542	2118	344969184919181
549	2132	344969185640079
557	2150	344969186437060
559	2163	344969187254092
557	2172	344969188068180
552	2174	344969188739496
548	2165	344969189579693
546	2145	344969190436959
547	2119	344969191242723
548	2098	344969192051000
542	2078	344969192868487
536	2073	344969193779523
535	2093	344969194620896
533	2117	344969195446520
533	2136	344969196265651
529	2146	344969196988299
526	2140	344969197810002
520	2122	344969198761162
515	2100	344969199611808
514	2087	344969200466887
522	2076	344969201241868
532	2076	344969202027922
547	2087	344969202803508
560	2105	344969203754440
564	2120	344969204557923
566	2128	344969205342317
565	2128	344969206131058
560	2119	344969206921352
557	2102	344969207723580
550	2077	344969208633109
548	2070	344969209461716
550	2080	344969210256511
554	2099	344969211043845
554	2117	344969211602545
547	2128	344969212494144
543	2139	344969213280846
540	2142	344969214086565
535	2136	344969214860156
534	2124	344969215633725
534	2102	344969216542413
534	2080	344969217401586
537	2073	344969218207645
540	2089	344969219037146
540	2118	344969219851164
538	2153	344969220660895
540	2182	344969221502944
542	2193	344969222329178
538	2179	344969223149133
535	2159	344969223987500
537	2148	344969224825593
540	2144	344969225649925
547	2152	344969226495936
558	2171	344969227333133
567	2191	344969228147948
571	2202	344969228978662
573	2202	344969229794117
571	2193	344969230634394
567	2176	344969231472964
560	2152	344969232300611
561	2134	344969233121079
567	2123	344969233953170
574	2122	344969234779361
579	2132	344969235613507
583	2151	344969236449392
589	2173	344969237210490
595	2187	344969238022647
596	2191	344969238745613
591	2186	344969239604632
588	2167	344969240439292
589	2153	344969241248993
589	2147	344969242080689
593	2147	344969242866070
600	2160	344969243750571
607	2183	344969244589751
613	2205	344969245201758
615	2219	344969245990227
613	2223	344969246769851
609	2214	344969247587501
605	2196	344969248406409
598	2172	344969249083928
592	2163	344969249878764
590	2160	344969250671458
595	2167	344969251480450
599	2183	344969252299214
601	2202	344969253123571
600	2218	344969253976139
598	2226	344969254803984
595	2230	344969255650188
586	2220	344969256518310
584	2197	344969257340133
583	2178	344969258155859
583	2169	344969258977231
584	2165	344969259781925
587	2177	344969260616927
586	2202	344969261475711
581	2226	344969262282639
573	2243	344969263096317
566	2250	344969263744204
560	2244	344969264694504
553	2227	344969265539807
545	2206	344969266389692
540	2204	344969267196465
535	2219	344969267872888
534	2241	344969268724320
533	2267	344969269614589
527	2286	344969270450523
523	2295	344969271250151
517	2296	344969271993792
512	2287	344969272819565
506	2260	344969273791733
502	2240	344969274612375
499	2233	344969275457849
493	2229	344969276253291
487	2236	344969277068937
491	2257	344969277907435
491	2277	344969278784223
488	2289	344969279631603
482	2292	344969280372482
477	2287	344969281205502
471	2269	344969282013791
466	2247	344969282824235
461	2231	344969283780382
457	2227	344969284495242
456	2238	344969285304342
458	2265	344969286068328
461	2290	344969286889009
465	2305	344969287721552
464	2309	344969288590614
459	2303	344969289462382
454	2281	344969290285994
450	2260	344969291100303
447	2251	344969291919605
445	2254	344969292764342
440	2268	344969293757796
437	2290	344969294617257
432	2308	344969295465963
431	2324	344969296304520
429	2328	344969296996554
425	2318	344969297820505
420	2292	344969298778966
417	2276	344969299631149
411	2262	344969300483025
412	2259	344969301247451
414	2273	344969302067155
414	2293	344969302879914
416	2318	344969303770253
422	2335	344969304657251
427	2345	344969305368874
423	2343	344969306135536
420	2331	344969306947722
419	2307	344969307753248
422	2295	344969308732214
427	2301	344969309499204
432	2319	344969310307867
442	2344	344969311116033
447	2367	344969311923796
448	2378	344969312735346
448	2381	344969313627106
449	2371	344969314487869
444	2349	344969315303750
441	2335	344969316115417
438	2331	344969316937484
432	2328	344969317755864
430	2343	344969318832359
436	2361	344969319670514
443	2378	344969320635748
445	2386	344969321497117
448	2387	344969322317590
446	2373	344969323141540
443	2348	344969323976438
437	2332	344969324802864
435	2331	344969325650484
433	2347	344969326525089
431	2374	344969327341269
430	2402	344969328158598
430	2420	344969328921045
428	2427	344969329742900
422	2418	344969330385923
421	2399	344969331211486
416	2386	344969332024996
420	2382	344969332817560
427	2373	344969333639465
432	2368	344969334489363
437	2371	344969335299700
441	2387	344969336130731
443	2407	344969336873655
443	2420	344969337686645
441	2425	344969338518836
436	2419	344969339320570
431	2397	344969340125457
426	2378	344969340758249
425	2369	344969341638850
422	2365	344969342684713
425	2374	344969343550615
427	2394	344969344408559
433	2415	344969345121332
436	2422	344969345951911
432	2420	344969346759366
427	2411	344969347597599
423	2394	344969348586067
423	2364	344969349445747
423	2350	344969350262679
420	2348	344969351112483
422	2359	344969351892409
423	2374	344969352723693
422	2387	344969353564242
420	2395	344969354333425
416	2396	344969355144370
411	2384	344969355965349
409	2363	344969356783079
404	2332	344969357649496
400	2311	344969358496402
396	2307	344969359329637
398	2319	344969360136636
400	2340	344969360961222
397	2359	344969361630399
393	2370	344969362524445
388	2373	344969363331619
384	2363	344969364161894
386	2338	344969364973013
385	2316	344969365758098
385	2303	344969366595587
389	2294	344969367424343
397	2296	344969368219525
405	2307	344969369045920
410	2326	344969369636718
410	2338	344969370508213
408	2347	344969371326827
404	2349	344969372008755
399	2348	344969372850103
399	2330	344969373782943
395	2302	344969374776901
390	2285	344969375683106
386	2295	344969376650192
383	2321	344969377487461
383	2346	344969378258305
386	2365	344969379099022
383	2375	344969379921223
380	2375	344969380733051
375	2358	344969381580927
370	2333	344969382382882
366	2316	344969383221600
361	2311	344969384056671
357	2319	344969384868164
359	2342	344969385638880
363	2369	344969386472209
363	2387	344969387283905
357	2399	344969388087290
355	2399	344969388922972
349	2382	344969389735772
348	2362	344969390589467
355	2358	344969391421817
357	2359	344969392233656
353	2370	344969392885980
357	2387	344969393810365
362	2405	344969394647066
364	2414	344969395509930
363	2417	344969396323953
368	2417	344969397010575
372	2406	344969397840451
377	2378	344969398792524
374	2366	344969399633353
375	2365	344969400499586
378	2368	344969401138482
382	2381	344969401953318
395	2404	344969402781958
433	2433	344969403744192
470	2452	344969404585279
479	2458	344969405387438
476	2449	344969406197731
477	2425	344969407004832
484	2408	344969407807712
489	2401	344969408649811
491	2409	344969409499206
488	2429	344969410320289
483	2457	344969411121869
478	2480	344969411938122
470	2494	344969412782173
467	2500	344969413671095
467	2486	344969414524073
468	2462	344969415337448
466	2452	344969416143594
461	2448	344969416965137
459	2453	344969417804667
453	2470	344969418768407
446	2496	344969419615829
443	2512	344969420452266
439	2526	344969421275569
436	2529	344969422031508
437	2515	344969422867354
440	2487	344969423801742
441	2471	344969424617706
447	2461	344969425482629
451	2466	344969426143144
458	2476	344969426949239
466	2494	344969427757241
467	2515	344969428598149
468	2526	344969429464606
468	2529	344969430294830
469	2520	344969431103422
470	2497	344969431913748
468	2473	344969432839843
463	2465	344969433639388
460	2471	344969434478618
460	2493	344969435313300
458	2515	344969436126508
456	2529	344969436937232
453	2534	344969437765475
449	2529	344969438605416
446	2512	344969439463967
441	2487	344969440283402
438	2458	344969441103999
440	2440	344969441912748
442	2439	344969442758147
440	2453	344969443604082
438	2477	344969444472614
437	2497	344969445273971
433	2505	344969446104408
432	2501	344969446924129
433	2490	344969447758128
438	2463	344969448609086
445	2445	344969449382550
452	2438	344969450230231
455	2438	344969451049091
457	2448	344969451868919
460	2464	344969452728220
462	2480	344969453580293
465	2489	344969454433398
461	2488	344969455260107
468	2475	344969456068356
482	2449	344969456875067
495	2431	344969457639828
506	2419	344969458649654
509	2423	344969459510623
513	2437	344969460341435
514	2452	344969461155254
509	2465	344969461967162
504	2473	344969462774433
497	2469	344969463652438
492	2453	344969464496660
487	2427	344969465307105
482	2403	344969466014549
477	2396	344969466826265
478	2400	344969467663886
483	2412	344969468517746
485	2430	344969469351101
484	2448	344969470185469
481	2461	344969471007214
476	2466	344969471824792
469	2456	344969472586275
466	2437	344969473433650
462	2414	344969474142698
460	2403	344969474983235
456	2406	344969475799127
455	2417	344969476621207
453	2435	344969477466332
452	2458	344969478285552
451	2472	344969479122963
448	2478	344969479963978
444	2474	344969480641908
439	2457	344969481492127
436	2433	344969482303310
434	2421	344969483122882
432	2418	344969483952281
427	2427	344969484787631
423	2450	344969485627749
420	2476	344969486467405
417	2491	344969487295861
411	2497	344969488104756
406	2491	344969488885082
406	2473	344969489716485
415	2451	344969490549911
428	2445	344969491359908
442	2445	344969492165952
453	2453	344969492888910
458	2469	344969493639919
458	2484	344969494504185
455	2502	344969495323333
451	2505	344969496153917
451	2496	344969496917489
453	2472	344969497742181
459	2454	344969498591680
467	2444	344969499481146
483	2438	344969500300304
499	2434	344969501122178
517	2436	344969501941973
534	2446	344969502767185
545	2456	344969503613414
549	2465	344969504497629
548	2466	344969505322967
543	2456	344969506146269
544	2432	344969506960436
549	2411	344969507847127
557	2397	344969508807973
560	2400	344969509519782
566	2411	344969510325386
567	2429	344969511135423
566	2446	344969511936407
561	2457	344969512751319
562	2459	344969513593892
564	2446	344969514463088
567	2420	344969515281794
575	2406	344969516089977
583	2399	344969516922800
592	2399	344969517735046
601	2410	344969518549977
608	2424	344969519448372
608	2437	344969520265736
605	2445	344969521084499
606	2444	344969521911595
608	2430	344969522744528
614	2402	344969523586761
623	2379	344969524435057
629	2363	344969525244147
633	2359	344969526053824
637	2371	344969526873836
647	2390	344969527688139
657	2405	344969528530058
661	2411	344969529379927
659	2409	344969530116428
658	2394	344969530932155
651	2367	344969531731795
643	2343	344969532645929
639	2330	344969533490593
634	2330	344969534320650
630	2341	344969535132376
631	2361	344969535944115
635	2380	344969536521355
638	2389	344969537350421
642	2394	344969538165004
643	2386	344969539009125
639	2365	344969539819791
633	2339	344969540651343
626	2324	344969541439899
620	2318	344969542217359
613	2317	344969542806511
608	2331	344969543786254
605	2358	344969544565156
606	2377	344969545353398
608	2389	344969546158985
609	2392	344969546967955
613	2378	344969547774542
619	2349	344969548760278
622	2340	344969549602316
632	2342	344969550443131
642	2351	344969551154172
648	2358	344969551971005
654	2374	344969552793220
663	2394	344969553793335
660	2397	344969554698739
655	2387	344969555540893
648	2368	344969556410486
640	2343	344969557230421
637	2326	344969558057019
640	2318	344969558914706
645	2322	344969559528171
650	2334	344969560341462
659	2355	344969561101642
669	2369	344969561920284
688	2375	344969562746455
705	2376	344969563612724
710	2363	344969564480144
707	2338	344969565299479
701	2318	344969566125583
700	2315	344969566934380
700	2322	344969567757753
702	2336	344969568617748
708	2362	344969569524454
719	2383	344969570120082
728	2395	344969570957412
740	2402	344969571776652
749	2390	344969572694556
749	2363	344969573546659
747	2351	344969574399280
741	2346	344969575217530
745	2351	344969576057154
758	2368	344969576876286
770	2391	344969577639833
779	2415	344969578280181
783	2425	344969579104343
782	2428	344969579911676
779	2419	344969580713512
779	2396	344969581553816
774	2378	344969582364232
765	2376	344969583192228
755	2378	344969584015012
748	2384	344969584824259
744	2396	344969585641017
746	2408	344969586537081
754	2426	344969587350073
761	2433	344969588151803
762	2422	344969588982619
756	2397	344969589794826
748	2374	344969590652442
742	2359	344969591483271
737	2342	344969592302425
729	2335	344969593024134
722	2343	344969593864905
717	2364	344969594704303
714	2383	344969595558882
712	2386	344969596415851
709	2381	344969597028127
706	2365	344969597640413
702	2345	344969598667642
695	2321	344969599514855
691	2314	344969600325098
687	2317	344969601011677
680	2323	344969601827198
674	2340	344969602740981
671	2353	344969603585355
672	2362	344969604441746
673	2362	344969605238165
675	2348	344969606060500
675	2325	344969606883191
673	2305	344969607717138
669	2300	344969608553377
667	2306	344969609381849
663	2324	344969610353915
657	2340	344969611174485
652	2352	344969611964444
644	2354	344969612803638
638	2341	344969613649959
637	2321	344969614547917
630	2296	344969615363709
622	2281	344969616168718
616	2271	344969616989994
610	2272	344969617784185
609	2282	344969618617240
609	2296	344969619486262
605	2307	344969620288367
601	2314	344969621098123
593	2313	344969621910598
589	2299	344969622742263
592	2272	344969623576097
594	2257	344969624434630
596	2247	344969625269768
596	2244	344969626085179
601	2257	344969626893523
608	2280	344969627697455
625	2300	344969628695330
646	2306	344969629923610
654	2293	344969630744259
649	2271	344969631580551
643	2251	344969632409823
636	2235	344969633171463
630	2231	344969634004633
627	2239	344969634831074
629	2266	344969635698906
640	2301	344969636532128
654	2328	344969637352135
670	2338	344969638168853
678	2331	344969639003813
677	2311	344969639829478
675	2291	344969640682463
667	2281	344969641534480
665	2279	344969642354865
667	2286	344969643190087
663	2307	344969644033062
656	2332	344969644854566
650	2349	344969645751532
645	2358	344969646601843
641	2352	344969647442370
636	2330	344969648279650
628	2305	344969649040715
625	2291	344969649860962
621	2286	344969650689588
616	2296	344969651523714
613	2317	344969652331242
610	2339	344969653159710
610	2356	344969653996208
617	2365	344969654810199
630	2357	344969655641131
642	2334	344969656588617
652	2315	344969657418235
654	2307	344969658225500
649	2303	344969659049224
643	2305	344969659856101
638	2316	344969660687294
635	2320	344969661526148
635	2319	344969662334626
643	2318	344969663166310
654	2313	344969664002209
666	2299	344969664826300
679	2274	344969665691276
697	2252	344969666538087
713	2238	344969667340488
726	2241	344969668150492
735	2261	344969668989089
738	2287	344969669815532
735	2307	344969670639266
729	2313	344969671478536
722	2307	344969672293354
718	2287	344969673137678
717	2268	344969673979488
718	2258	344969674803833
732	2253	344969675647197
759	2254	344969676488700
786	2268	344969677307739
802	2289	344969678140767
812	2306	344969678963078
816	2314	344969679776355
811	2310	344969680601152
809	2296	344969681433904
804	2271	344969682245768
796	2258	344969683069462
797	2252	344969683893243
803	2257	344969684544106
811	2269	344969685375343
819	2298	344969686181642
825	2323	344969686987271
834	2340	344969687782950
851	2346	344969688626735
861	2335	344969689484574
861	2311	344969690122087
854	2299	344969690802306
846	2291	344969691649437
839	2292	344969692567450
839	2299	344969693428611
842	2316	344969694265496
839	2337	344969694918082
833	2348	344969695736650
824	2352	344969696583268
816	2346	344969697296801
809	2329	344969698113676
805	2306	344969698949264
803	2290	344969699785231
804	2283	344969700629790
806	2285	344969701531047
808	2301	344969702367448
811	2318	344969703179001
806	2332	344969704011832
799	2338	344969704775537
793	2335	344969705608789
783	2313	344969706579979
776	2290	344969707409716
770	2278	344969708224058
764	2273	344969709063162
762	2281	344969709891404
762	2298	344969710712587
763	2316	344969711543770
761	2330	344969712374198
759	2337	344969713200493
753	2335	344969714043524
747	2318	344969714884470
739	2292	344969715705918
733	2276	344969716554666
729	2275	344969717363478
732	2290	344969718037265
740	2311	344969718877251
747	2332	344969719709539
747	2347	344969720542200
742	2357	344969721356718
736	2358	344969722049847
730	2346	344969722858797
723	2318	344969723822893
724	2299	344969724584879
725	2289	344969725391164
723	2288	344969726170920
720	2301	344969727001759
716	2321	344969727807626
711	2339	344969728637989
705	2351	344969729491348
699	2351	344969730301694
694	2338	344969731112626
686	2314	344969731940545
685	2297	344969732668743
685	2289	344969733530655
686	2284	344969734364416
686	2290	344969735185065
691	2303	344969736005764
689	2314	344969736839440
683	2324	344969737640112
678	2327	344969738491605
670	2320	344969739344007
665	2305	344969740166862
662	2280	344969740915660
662	2259	344969741754686
662	2254	344969742664337
662	2271	344969743690605
663	2296	344969744532875
664	2314	344969745344666
660	2328	344969746159012
653	2330	344969746932837
649	2320	344969747749259
647	2296	344969748601465
640	2279	344969749300485
634	2274	344969750128514
632	2276	344969750947001
636	2288	344969751782549
633	2305	344969752690380
628	2320	344969753552721
621	2327	344969754441891
615	2325	344969755258234
614	2315	344969756076801
610	2293	344969756837613
606	2272	344969757684545
600	2259	344969758540484
596	2262	344969759422981
591	2278	344969760238204
584	2303	344969761054609
577	2328	344969761637768
574	2346	344969762576064
568	2359	344969763395549
565	2341	344969764252481
566	2320	344969765076843
570	2311	344969765673521
570	2307	344969766540293
571	2309	344969767361033
574	2324	344969768186999
573	2344	344969769055303
566	2364	344969769893124
564	2378	344969770689490
566	2378	344969771709577
575	2364	344969772660569
596	2339	344969773490509
613	2321	344969774341044
622	2312	344969775161203
625	2312	344969776053239
624	2317	344969776891869
619	2333	344969777710372
613	2350	344969778558101
609	2360	344969779442021
613	2359	344969780259435
621	2345	344969781079900
633	2322	344969781841258
647	2309	344969782746277
664	2301	344969783596492
674	2295	344969784429153
680	2303	344969785249352
689	2318	344969786076938
693	2331	344969786890909
687	2338	344969787717221
684	2341	344969788573044
681	2331	344969789338833
679	2309	344969790150750
677	2289	344969790960160
676	2276	344969791789970
676	2276	344969792691812
676	2286	344969793550632
677	2309	344969794396398
680	2329	344969795203035
676	2345	344969796012567
669	2351	344969796842047
663	2344	344969797682719
655	2322	344969798525837
651	2306	344969799348958
648	2301	344969800158653
652	2306	344969800966385
652	2318	344969801638672
652	2336	344969802543033
655	2362	344969803186907
658	2375	344969804049422
657	2384	344969804877516
655	2380	344969805721208
652	2359	344969806564921
650	2344	344969807385082
647	2336	344969808207877
639	2335	344969809061998
632	2343	344969809899581
631	2360	344969810725465
629	2374	344969811551182
626	2379	344969812363152
619	2377	344969813186541
613	2370	344969814042379
607	2354	344969814863524
600	2328	344969815685518
595	2311	344969816604929
588	2304	344969817450141
585	2306	344969818234115
584	2321	344969819089058
585	2338	344969819897700
583	2350	344969820708698
580	2353	344969821559445
576	2349	344969822360884
567	2333	344969823174317
561	2307	344969824018271
555	2284	344969824842558
548	2273	344969825640740
547	2274	344969826542920
548	2293	344969827365818
547	2318	344969828181380
547	2338	344969828943322
545	2346	344969829765988
539	2345	344969830611731
535	2333	344969831470475
529	2309	344969832274901
526	2296	344969833092531
525	2289	344969833938266
521	2290	344969834746522
519	2306	344969835582256
519	2331	344969836435165
521	2352	344969837234353
515	2366	344969838058134
510	2370	344969838681770
505	2363	344969839528114
500	2341	344969840339358
494	2331	344969841142809
492	2335	344969841950559
492	2348	344969842806992
491	2368	344969843796563
487	2385	344969844637497
482	2390	344969845474335
476	2380	344969846275646
476	2362	344969846903697
473	2344	344969847687748
469	2319	344969848503000
465	2295	344969849318209
462	2278	344969850113755
463	2272	344969850922138
464	2279	344969851703901
470	2301	344969852597803
470	2322	344969853411658
470	2335	344969854221524
472	2338	344969855012996
471	2330	344969855824519
470	2308	344969856639960
464	2288	344969857403375
463	2277	344969858208492
466	2274	344969859033992
469	2282	344969859848355
475	2306	344969860703149
483	2331	344969861540199
491	2352	344969862340773
493	2360	344969863152181
490	2354	344969863974999
485	2333	344969864790083
488	2319	344969865645982
491	2310	344969866478218
494	2306	344969867279202
500	2312	344969868077630
507	2326	344969868903250
512	2344	344969869641077
519	2357	344969870500614
524	2369	344969871537893
521	2368	344969872343077
517	2354	344969873188923
510	2329	344969874026476
507	2312	344969874861079
503	2304	344969875728015
503	2307	344969876576023
504	2329	344969877398855
507	2358	344969878185137
508	2377	344969879011746
507	2384	344969879820949
500	2376	344969880792599
494	2354	344969881633320
490	2333	344969882435968
487	2317	344969883259642
488	2309	344969884087301
489	2308	344969884871373
487	2317	344969885716625
487	2338	344969886518928
485	2348	344969887349179
480	2357	344969888163011
476	2356	344969888999844
472	2339	344969889641608
467	2320	344969890517286
465	2293	344969891347634
460	2276	344969892165511
461	2277	344969892814380
462	2285	344969893665494
461	2301	344969894536916
459	2321	344969895374238
460	2334	344969896201181
457	2338	344969896937959
454	2332	344969897640110
448	2316	344969898490706
443	2293	344969899330200
442	2283	344969900166545
445	2289	344969900980421
452	2304	344969901794480
457	2330	344969902684852
459	2350	344969903526114
458	2362	344969904359343
457	2366	344969905192975
454	2355	344969906003461
447	2331	344969906818735
443	2312	344969907439805
439	2305	344969908243487
434	2305	344969909073173
430	2316	344969909875056
427	2337	344969910712508
426	2364	344969911555370
427	2387	344969912377014
428	2403	344969913197703
429	2407	344969914038911
428	2390	344969914883002
425	2366	344969915690219
422	2357	344969916535608
420	2360	344969917352608
422	2379	344969918058418
427	2405	344969918898830
432	2432	344969919741416
434	2447	344969920587888
433	2459	344969921407311
430	2459	344969922241393
425	2444	344969923062252
420	2417	344969923903912
416	2398	344969924666671
415	2393	344969925515096
411	2399	344969926192233
409	2413	344969927033256
406	2435	344969927844643
402	2452	344969928651327
397	2460	344969929504983
392	2457	344969930311132
390	2436	344969931130861
387	2412	344969931959161
384	2395	344969932690599
383	2384	344969933538372
384	2377	344969934389135
386	2381	344969935195204
386	2394	344969936004196
385	2408	344969936850608
382	2422	344969937641444
377	2439	344969938580092
374	2449	344969939453697
369	2432	344969940269813
366	2412	344969940941622
363	2407	344969941779770
361	2407	344969942673016
360	2419	344969943513507
361	2443	344969944337924
360	2465	344969945133445
358	2483	344969945955257
355	2490	344969946790104
352	2484	344969947621877
349	2461	344969948460917
346	2441	344969949302773
343	2428	344969950112997
344	2416	344969950923723
345	2417	344969951789479
346	2429	344969952690966
346	2443	344969953532791
348	2456	344969954378051
347	2462	344969955184882
344	2464	344969956017003
340	2451	344969956777975
338	2436	344969957627157
337	2410	344969958478558
336	2401	344969959337102
345	2418	344969960152396
354	2444	344969960960800
360	2469	344969961569615
364	2486	344969962385833
364	2504	344969963213180
364	2511	344969964038572
359	2504	344969964860916
355	2481	344969965696846
351	2459	344969966560876
348	2462	344969967374959
348	2489	344969968191954
349	2524	344969969048725
353	2559	344969969643386
358	2577	344969970485610
360	2592	344969971256758
366	2597	344969971947545
367	2591	344969972780070
362	2562	344969973769316
360	2552	344969974609049
359	2552	344969975412732
359	2562	344969976073490
358	2574	344969976886481
360	2599	344969977722039
361	2625	344969978578541
359	2644	344969979401432
356	2653	344969980206669
353	2647	344969981028965
355	2622	344969981641130
357	2612	344969982328563
358	2607	344969983170729
353	2607	344969984008007
354	2615	344969984832109
356	2632	344969985667127
359	2660	344969986549594
358	2674	344969987360294
360	2680	344969988198033
356	2671	344969989032240
352	2650	344969989640003
352	2629	344969990501491
353	2611	344969991319789
355	2605	344969992142232
356	2614	344969992820200
357	2626	344969993676713
360	2646	344969994553090
364	2665	344969995366114
362	2675	344969996177483
358	2678	344969996946056
357	2659	344969997640009
362	2638	344969998286262
368	2627	344969999074488
374	2618	344969999908831
377	2606	344970000730753
380	2603	344970001544016
380	2612	344970002349458
377	2618	344970003167529
375	2630	344970003998504
373	2636	344970004830294
375	2639	344970005672321
372	2628	344970006506714
368	2602	344970007282240
367	2588	344970008085351
368	2581	344970008910721
370	2576	344970009639193
369	2586	344970010484114
369	2606	344970011303859
372	2618	344970012138349
371	2619	344970012968271
367	2607	344970013887088
372	2587	344970014745386
375	2564	344970015589990
374	2539	344970016408895
368	2513	344970017240633
363	2502	344970018080451
365	2512	344970018912485
369	2541	344970019732154
370	2575	344970020570009
367	2594	344970021380348
364	2598	344970022213685
359	2591	344970023021092
360	2571	344970023887249
360	2554	344970024648036
355	2552	344970025498449
356	2559	344970026091793
352	2563	344970026930300
350	2567	344970027744874
351	2573	344970028594118
350	2576	344970029419681
351	2576	344970030226140
351	2578	344970031047166
354	2572	344970031888611
358	2552	344970032576096
360	2532	344970033398617
361	2515	344970034251158
358	2518	344970035047072
355	2524	344970035918111
357	2542	344970036577658
356	2545	344970037391437
357	2535	344970038200136
369	2556	344970039022293
391	2580	344970039829711
402	2565	344970040672213
408	2538	344970041433977
413	2523	344970042241199
419	2525	344970042829596
423	2551	344970043787602
422	2579	344970044629238
421	2590	344970045466220
415	2599	344970046266469
417	2606	344970046956365
415	2598	344970047760707
415	2585	344970048738305
415	2568	344970049580002
415	2559	344970050392811
427	2555	344970051081994
432	2561	344970051909072
432	2602	344970052803074
438	2651	344970053673737
454	2664	344970054544101
475	2652	344970055330214
480	2626	344970056165551
491	2613	344970056986150
516	2622	344970057646100
526	2614	344970058514022
522	2591	344970059349238
527	2603	344970060168108
529	2598	344970060982317
526	2617	344970061587722
521	2630	344970062403255
527	2646	344970063256164
523	2672	344970064061624
523	2694	344970064881791
521	2686	344970065654452
517	2668	344970066492481
517	2673	344970067301799
518	2675	344970068124613
517	2675	344970068967606
524	2701	344970069778995
538	2722	344970070631354
554	2723	344970071610782
565	2699	344970072384092
576	2680	344970073220728
603	2676	344970074047972
627	2675	344970074866051
652	2686	344970075699563
671	2673	344970076589399
684	2645	344970077415196
680	2667	344970078207683
675	2667	344970079031433
676	2712	344970079841080
682	2728	344970080649737
686	2713	344970081484604
694	2690	344970082197495
700	2688	344970082995209
696	2709	344970083876744
699	2702	344970084722757
715	2689	344970085562620
733	2702	344970086374032
755	2715	344970087198499
762	2709	344970088001257
759	2709	344970088878854
753	2704	344970089641957
748	2682	344970090580140
760	2660	344970091344446
780	2640	344970092155095
786	2635	344970092834702
785	2649	344970093690496
782	2676	344970094622977
790	2696	344970095484996
807	2712	344970096296101
835	2724	344970096955945
854	2715	344970097640442
862	2701	344970098483272
858	2678	344970099332846
874	2660	344970100144356
902	2640	344970100955983
931	2646	344970101766034
983	2694	344970102716531
1042	2711	344970103556654
1086	2683	344970104595350
1116	2686	344970105339489
1143	2706	344970106148422
1159	2692	344970106973533
1167	2687	344970107784658
1167	2699	344970108629687
1163	2692	344970109461004
1152	2666	344970110297741
1143	2659	344970111115212
1137	2669	344970111930179
1130	2668	344970112783296
1117	2684	344970113589999
1106	2696	344970114430344
1095	2694	344970115242139
1090	2670	344970116061907
1088	2653	344970116879859
1094	2668	344970117609918
1093	2689	344970118431712
1091	2707	344970119274382
1084	2704	344970120098390
1078	2715	344970120916395
1076	2691	344970121752141
1067	2666	344970122673961
1060	2640	344970123516502
1070	2618	344970124354911
1093	2635	344970125184963
1112	2623	344970125971184
1126	2623	344970126762724
1140	2651	344970127596232
1156	2690	344970128211119
1164	2714	344970129039074
1190	2710	344970129871072
1214	2701	344970130709404
1225	2708	344970131548227
1216	2686	344970132337418
1225	2667	344970133142211
1238	2654	344970133983686
1231	2633	344970134833074
1222	2628	344970135680064
1233	2657	344970136528892
1248	2700	344970137298675
1267	2741	344970138125193
1296	2768	344970138964473
1303	2762	344970139804285
1294	2759	344970140647488
1291	2745	344970141494961
1279	2749	344970142327249
1270	2834	344970143156838
1262	2883	344970143992616
1258	2878	344970144836821
1245	2853	344970145674499
1235	2882	344970146526269
1228	2880	344970147337309
1220	2898	344970148157490
1211	2922	344970148988843
1199	2906	344970149640179
1188	2901	344970150477078
1183	2943	344970151096563
1191	2995	344970151929504
1193	3037	344970152762993
1184	3017	344970153611772
1180	2994	344970154437051
1175	2963	344970155240173
1165	2941	344970156049081
1154	2920	344970156880251
1144	2888	344970157640131
1133	2861	344970158477615
1124	2830	344970159306094
1136	2828	344970160114518
1154	2869	344970160942621
1166	2899	344970161771370
1174	2900	344970162697692
1186	2893	344970163556199
1206	2885	344970164388204
1216	2878	344970165211607
1215	2869	344970166031826
1204	2845	344970166872117
1203	2824	344970167715020
1213	2824	344970168565377
1220	2826	344970169415816
1230	2836	344970170234424
1244	2844	344970171051754
1264	2839	344970171883973
1292	2867	344970172789286
1307	2864	344970173655070
1299	2885	344970174518221
1287	2930	344970175339774
1282	2954	344970176093148
1301	2959	344970176919505
1314	2963	344970177642087
1315	2954	344970178485240
1303	2921	344970179333593
1295	2906	344970180149546
1302	2929	344970180958493
1317	2945	344970181785258
1315	2932	344970182683089
1307	2960	344970183522706
1306	2951	344970184371298
1314	2939	344970185185215
1331	2952	344970185998171
1350	2949	344970186826063
1371	2957	344970187665907
1392	2968	344970188502922
1399	2960	344970189349542
1397	2949	344970190160549
1393	2932	344970190982440
1384	2929	344970191823929
1370	2921	344970192657396
1365	2934	344970193523727
1382	2955	344970194360547
1395	2967	344970195168458
1406	2968	344970195986906
1404	2961	344970196827124
1396	2944	344970197641157
1386	2935	344970198657415
1378	2901	344970199534783
1373	2887	344970200347729
1362	2879	344970201111089
1351	2892	344970201941143
1355	2907	344970202812574
1357	2899	344970203650338
1347	2904	344970204528275
1332	2920	344970205232965
1319	2920	344970206065591
1309	2890	344970206902114
1304	2855	344970207744270
1300	2834	344970208594328
1297	2831	344970209433861
1294	2833	344970210253624
1280	2851	344970211073944
1266	2873	344970211889903
1254	2893	344970212798595
1239	2899	344970213612681
1227	2883	344970214493898
1215	2854	344970215314116
1206	2831	344970216135444
1195	2820	344970216993174
1184	2816	344970217642221
1174	2819	344970218433396
1162	2829	344970219256199
1151	2838	344970219862650
1139	2846	344970220702538
1127	2850	344970221564261
1118	2845	344970222377168
1108	2829	344970223198928
1099	2801	344970223987661
1088	2776	344970224777994
1078	2759	344970225618362
1068	2752	344970226447498
1064	2758	344970227263246
1060	2773	344970228074115
1056	2784	344970228920977
1057	2794	344970229760766
1061	2797	344970230598431
1066	2786	344970231420599
1072	2761	344970232227033
1080	2736	344970233054860
1082	2719	344970233916167
1080	2718	344970234766756
1071	2733	344970235616055
1064	2756	344970236484145
1062	2773	344970237311714
1061	2779	344970238136657
1064	2777	344970238966937
1069	2765	344970239786325
1081	2736	344970240635574
1091	2713	344970241497184
1091	2703	344970242114705
1084	2707	344970242727705
1073	2719	344970243772709
1064	2735	344970244624808
1056	2752	344970245434061
1045	2763	344970246236259
1035	2764	344970246974351
1025	2754	344970247792687
1014	2725	344970248659556
1005	2697	344970249511175
1001	2676	344970250336917
1006	2671	344970251104365
1010	2679	344970251919919
1004	2697	344970252821803
993	2717	344970253694109
995	2727	344970254559253
991	2729	344970255228015
985	2720	344970256061273
980	2696	344970256890736
984	2667	344970257736671
980	2643	344970258607380
970	2631	344970259442469
965	2628	344970260260841
956	2631	344970261066435
956	2639	344970261654832
959	2649	344970262557898
959	2661	344970263384333
955	2660	344970264218827
946	2649	344970265035143
939	2624	344970265737369
934	2604	344970266578591
929	2586	344970267382030
922	2580	344970268218009
920	2589	344970269048722
935	2607	344970269641581
954	2624	344970270491560
980	2642	344970271296645
1007	2646	344970272248667
1027	2637	344970273112599
1044	2616	344970273943012
1057	2590	344970274775951
1065	2582	344970275617779
1064	2590	344970276431681
1055	2610	344970277251525
1048	2632	344970278102024
1045	2650	344970278943481
1048	2661	344970279772834
1052	2660	344970280660788
1052	2643	344970281504344
1054	2616	344970282114346
1063	2605	344970282938356
1081	2591	344970283896852
1089	2587	344970284738448
1086	2593	344970285593429
1078	2606	344970286407248
1069	2621	344970287211958
1060	2632	344970287983131
1049	2633	344970288915340
1038	2624	344970289639912
1028	2608	344970290506993
1018	2580	344970291327151
1007	2560	344970292147355
997	2551	344970292983849
989	2555	344970293913305
985	2573	344970294754970
978	2593	344970295616170
969	2608	344970296431739
958	2615	344970297228082
949	2608	344970298078337
955	2588	344970298914467
969	2563	344970299793285
969	2552	344970300642304
961	2552	344970301499337
967	2566	344970302318463
979	2586	344970303157217
993	2603	344970303986269
1013	2613	344970304829554
1036	2607	344970305665426
1053	2588	344970306554325
1059	2558	344970307364503
1057	2536	344970308197141
1056	2521	344970309039165
1052	2518	344970309859600
1045	2527	344970310736067
1035	2542	344970311486426
1032	2553	344970312305461
1027	2561	344970313066653
1020	2566	344970313909263
1016	2560	344970314752286
1018	2543	344970315615855
1022	2516	344970316430348
1023	2500	344970317243827
1024	2499	344970318068701
1019	2512	344970319003013
1011	2530	344970319814838
1006	2549	344970320666593
999	2566	344970321497598
991	2575	344970322274096
982	2567	344970323108563
977	2544	344970323933681
970	2520	344970324777354
964	2507	344970325628464
963	2503	344970326429848
971	2510	344970327236264
986	2526	344970328064359
998	2538	344970328903976
1003	2543	344970329750327
999	2540	344970330603675
990	2528	344970331391458
988	2507	344970332209697
977	2481	344970333045940
968	2461	344970333930756
962	2456	344970334564325
957	2462	344970335400557
964	2477	344970336220997
979	2495	344970337042499
1001	2508	344970337874542
1028	2513	344970338629980
1041	2509	344970339451831
1060	2490	344970340291547
1070	2462	344970341114121
1071	2444	344970341944695
1064	2439	344970342739012
1060	2445	344970343594606
1062	2463	344970344428968
1062	2479	344970345259855
1060	2491	344970346072637
1054	2499	344970346888365
1044	2499	344970347737813
1034	2488	344970348580107
1032	2463	344970349419306
1028	2449	344970350252206
1018	2440	344970351063352
1006	2438	344970351868526
995	2450	344970352629005
987	2462	344970353238131
978	2473	344970354069797
967	2480	344970354901401
957	2482	344970355729807
946	2473	344970356564320
935	2451	344970357375053
927	2427	344970358174059
916	2403	344970358986883
907	2397	344970359815288
900	2405	344970360650789
895	2419	344970361461828
894	2433	344970362284839
895	2443	344970363031105
892	2442	344970364018375
885	2433	344970364843387
882	2412	344970365647953
882	2394	344970366456378
883	2381	344970367189939
889	2378	344970368027174
897	2385	344970368733497
899	2399	344970369610257
893	2414	344970370429493
886	2425	344970371249893
880	2427	344970371911206
874	2424	344970372809945
863	2399	344970373630131
856	2379	344970374435757
848	2364	344970375224128
846	2360	344970375991059
851	2363	344970376743892
863	2372	344970377556018
889	2384	344970378116257
904	2393	344970378935626
914	2404	344970379743794
911	2408	344970380555837
903	2400	344970381355136
901	2381	344970382139383
910	2360	344970382906100
934	2343	344970383855822
960	2338	344970384614870
976	2345	344970385359732
993	2362	344970386166705
1009	2381	344970386931687
1016	2395	344970387750179
1020	2401	344970388595293
1018	2397	344970389438393
1009	2383	344970390258652
1009	2358	344970391089438
1027	2341	344970391877946
1065	2335	344970392719805
1099	2339	344970393590082
1138	2354	344970394430831
1166	2372	344970395250724
1181	2382	344970396097165
1183	2385	344970396899750
1171	2380	344970397746643
1169	2362	344970398613933
1183	2338	344970399447508
1200	2322	344970400269309
1214	2316	344970401069457
1230	2319	344970401881786
1246	2336	344970402776427
1254	2353	344970403621358
1255	2368	344970404456034
1253	2375	344970405266068
1242	2371	344970406097028
1236	2351	344970406903560
1236	2328	344970407738583
1237	2312	344970408589849
1230	2305	344970409422487
1219	2308	344970410229304
1214	2320	344970411044546
1216	2335	344970411853831
1219	2346	344970412754743
1225	2354	344970413620675
1222	2356	344970414454375
1216	2345	344970415230444
1214	2322	344970416004367
1213	2301	344970416786931
1206	2288	344970417595432
1194	2283	344970418386795
1184	2294	344970419187956
1178	2313	344970419868109
1169	2333	344970420731634
1157	2348	344970421571251
1144	2356	344970422348614
1134	2348	344970423158342
1129	2323	344970423987674
1128	2301	344970424795349
1122	2286	344970425642290
1122	2284	344970426451682
1126	2291	344970427259164
1132	2305	344970428079606
1133	2319	344970428925118
1133	2337	344970429778320
1135	2345	344970430647800
1135	2339	344970431467201
1130	2318	344970432285855
1126	2298	344970433056184
1122	2287	344970433934946
1111	2286	344970434781490
1103	2297	344970435653067
1104	2320	344970436468850
1111	2344	344970437297183
1122	2362	344970438131210
1135	2369	344970438967299
1145	2369	344970439796416
1153	2349	344970440660569
1157	2328	344970441523925
1159	2319	344970442120078
1159	2321	344970442758567
1151	2330	344970443606080
1139	2349	344970444433422
1127	2370	344970445266885
1116	2384	344970446084287
1107	2396	344970446893236
1100	2399	344970447733813
1092	2388	344970448581593
1081	2365	344970449379635
1070	2346	344970450113872
1064	2340	344970450920387
1057	2341	344970451754215
1045	2356	344970452673660
1037	2377	344970453514531
1031	2393	344970454342865
1023	2405	344970455171322
1019	2407	344970455996069
1017	2394	344970456814543
1009	2372	344970457650428
997	2350	344970458473775
989	2341	344970459309284
979	2342	344970460142789
969	2356	344970460965451
959	2375	344970461793348
952	2391	344970462728231
947	2399	344970463657193
948	2396	344970464506633
939	2378	344970465269896
933	2356	344970466063512
928	2339	344970466868103
929	2332	344970467723454
931	2336	344970468564098
936	2352	344970469361725
947	2371	344970470198589
956	2385	344970471018212
962	2394	344970471834508
960	2395	344970472595160
954	2383	344970473414794
949	2358	344970474241359
944	2338	344970475079517
939	2330	344970475896728
931	2334	344970476739287
922	2352	344970477585411
914	2376	344970478180079
910	2389	344970479016534
902	2403	344970479854792
893	2409	344970480536308
887	2404	344970481353226
880	2387	344970482164492
874	2362	344970482983892
866	2346	344970483928404
856	2342	344970484868863
847	2352	344970485640105
841	2365	344970486452306
839	2384	344970487284253
834	2397	344970488095915
828	2406	344970488889711
823	2405	344970489748196
818	2387	344970490643042
811	2363	344970491467365
807	2349	344970492279382
807	2344	344970493112553
809	2351	344970493954119
812	2370	344970494800975
814	2393	344970495652153
819	2406	344970496471552
818	2407	344970497312771
812	2392	344970498133688
804	2367	344970498963344
800	2352	344970499826132
804	2345	344970500665007
812	2347	344970501478159
821	2356	344970502277680
835	2374	344970503092289
843	2398	344970503928649
846	2415	344970504688939
848	2417	344970505530364
848	2405	344970506335672
846	2380	344970507164381
838	2359	344970507971451
829	2348	344970508913222
826	2348	344970509818340
827	2362	344970510660558
822	2381	344970511468339
825	2395	344970512308145
825	2403	344970513136060
819	2409	344970513976408
811	2405	344970514818750
806	2382	344970515657300
799	2363	344970516474607
791	2354	344970517287212
782	2353	344970518119142
774	2359	344970518956986
768	2375	344970519803232
773	2389	344970520622315
779	2399	344970521443508
788	2402	344970522278520
792	2391	344970523109322
785	2366	344970523943338
786	2342	344970524807984
790	2323	344970525661827
792	2309	344970526477243
787	2307	344970527306616
784	2309	344970528114938
777	2317	344970528947044
773	2325	344970529762015
774	2334	344970530607385
779	2333	344970531413852
787	2317	344970532241090
795	2294	344970533062319
807	2279	344970533942742
823	2275	344970534792538
837	2281	344970535627122
840	2295	344970536431999
837	2309	344970537193306
832	2318	344970538004873
825	2322	344970538907083
823	2314	344970539764550
824	2292	344970540618562
821	2269	344970541432283
822	2254	344970542268793
827	2250	344970543088805
834	2258	344970543944407
847	2275	344970544797933
864	2291	344970545648339
872	2304	344970546465692
871	2309	344970547277877
862	2303	344970548064217
856	2282	344970548949978
847	2259	344970549844605
842	2248	344970550695751
845	2244	344970551542117
857	2254	344970552377261
870	2274	344970553160859
878	2293	344970554003190
885	2310	344970554867425
886	2316	344970555708497
889	2308	344970556542194
888	2286	344970557376266
877	2268	344970558184294
870	2257	344970559016611
871	2258	344970559818946
883	2270	344970560661382
894	2287	344970561470755
898	2305	344970562294489
901	2318	344970563107618
898	2327	344970563933006
894	2322	344970564788706
888	2300	344970565662322
886	2280	344970566490730
879	2268	344970567304088
877	2267	344970568118951
886	2279	344970569030739
905	2299	344970569891899
925	2318	344970570729950
937	2330	344970571562433
938	2336	344970572612227
929	2331	344970573424468
920	2309	344970574269463
914	2287	344970575094620
913	2278	344970575900792
909	2285	344970576733095
910	2304	344970577593042
912	2334	344970578400693
915	2361	344970579226789
915	2375	344970580032772
910	2377	344970580839868
899	2356	344970581639833
892	2335	344970582277560
889	2327	344970583103377
889	2324	344970583945024
887	2328	344970584663097
889	2330	344970585485529
891	2340	344970586308962
892	2354	344970587150165
888	2366	344970587969988
887	2374	344970588936809
882	2366	344970589640395
879	2350	344970590458252
873	2324	344970591273632
866	2307	344970592088383
863	2298	344970592761982
868	2300	344970593621999
880	2317	344970594480071
889	2336	344970595296581
890	2351	344970596114238
887	2358	344970596885636
880	2356	344970597640791
875	2345	344970598456367
871	2321	344970599315436
862	2303	344970600122871
858	2299	344970600933649
860	2302	344970601782941
867	2317	344970602692899
874	2336	344970603526435
878	2355	344970604376293
880	2367	344970605184287
880	2370	344970605975741
869	2359	344970606799407
864	2334	344970607640682
864	2315	344970608447372
864	2306	344970609304331
863	2305	344970610120447
861	2319	344970610949244
860	2336	344970611802967
859	2352	344970612716133
854	2362	344970613530238
846	2365	344970614385018
845	2353	344970615205235
848	2332	344970616020226
856	2310	344970616860690
866	2296	344970617716287
870	2296	344970618558160
871	2308	344970619388528
870	2327	344970620205039
868	2342	344970621025396
866	2351	344970621864360
858	2352	344970622774801
852	2337	344970623626172
848	2313	344970624456715
840	2295	344970625271231
835	2289	344970626046513
839	2291	344970626872343
841	2305	344970627706733
840	2322	344970628702258
842	2338	344970629584090
838	2341	344970630297037
835	2340	344970631116040
839	2327	344970631916815
845	2302	344970632820379
861	2284	344970633810271
869	2279	344970634683736
871	2287	344970635525885
867	2307	344970636340999
859	2329	344970637170265
860	2349	344970637990665
868	2358	344970638940418
874	2353	344970639803330
882	2333	344970640646016
894	2313	344970641459896
907	2302	344970642292469
921	2299	344970643100082
928	2308	344970643947937
933	2325	344970644798815
943	2339	344970645648070
952	2353	344970646459189
953	2364	344970647262543
945	2364	344970648069631
938	2342	344970648946090
934	2319	344970649639712
930	2308	344970650448411
920	2300	344970651045331
914	2303	344970651876186
908	2319	344970652770063
904	2338	344970653630802
896	2357	344970654480966
889	2365	344970655289159
885	2365	344970656107212
887	2351	344970656944167
894	2327	344970657759148
907	2309	344970658620826
917	2302	344970659414413
930	2306	344970660233816
945	2323	344970661055256
953	2346	344970661895028
953	2364	344970662797451
953	2373	344970663528950
947	2370	344970664380655
939	2349	344970665217727
933	2328	344970666038460
929	2311	344970666887158
928	2300	344970667725716
932	2300	344970668558323
940	2312	344970669385971
957	2332	344970670198385
970	2349	344970671007861
982	2360	344970671836571
981	2364	344970672738117
971	2355	344970673576748
961	2332	344970674419172
956	2310	344970675227056
948	2297	344970676024236
944	2298	344970676846797
940	2313	344970677685478
943	2336	344970678483677
938	2356	344970679332324
929	2366	344970680140573
922	2368	344970680945543
918	2355	344970681640585
913	2336	344970682272801
912	2319	344970683095821
921	2305	344970683961242
937	2302	344970684805439
957	2310	344970685657587
968	2324	344970686486525
967	2339	344970687305087
960	2353	344970688126739
952	2354	344970688980077
957	2346	344970689641380
971	2331	344970690462781
990	2306	344970691297763
1005	2291	344970692126587
1014	2288	344970692775271
1019	2299	344970693653888
1024	2320	344970694490464
1025	2343	344970695307723
1021	2364	344970696111670
1011	2372	344970696900086
1008	2365	344970697740077
1002	2344	344970698763856
993	2319	344970699626487
993	2310	344970700448356
997	2314	344970701280663
1012	2327	344970702117654
1024	2344	344970702940383
1030	2364	344970703925134
1031	2379	344970704746440
1029	2385	344970705590812
1024	2379	344970706427827
1013	2364	344970707246854
1008	2341	344970708064766
1003	2324	344970708959896
1000	2323	344970709637305
999	2331	344970710446645
1004	2348	344970711275677
1006	2366	344970712083797
999	2382	344970712895833
990	2389	344970713530106
988	2392	344970714358339
987	2382	344970715146290
978	2360	344970715971485
968	2339	344970716804887
960	2327	344970717610817
959	2325	344970718410078
962	2335	344970719210007
964	2348	344970719768138
958	2362	344970720592061
950	2373	344970721382503
942	2381	344970722163298
937	2378	344970722956219
938	2359	344970723909047
942	2334	344970724734586
940	2317	344970725578018
934	2310	344970726365193
927	2314	344970727152915
919	2325	344970727935594
908	2345	344970728749252
899	2356	344970729571240
889	2363	344970730258365
881	2366	344970731043742
874	2356	344970731829185
871	2332	344970732757903
873	2312	344970733623983
880	2300	344970734405332
886	2300	344970735238227
894	2309	344970736056948
894	2325	344970736774220
888	2340	344970737635134
880	2356	344970738441163
871	2369	344970739269753
865	2360	344970740073391
863	2337	344970740883029
874	2316	344970741725577
890	2306	344970742649686
901	2305	344970743457630
906	2308	344970744285372
897	2322	344970744995123
894	2335	344970745817137
897	2348	344970746648194
898	2350	344970747566393
901	2337	344970748372095
906	2313	344970749020047
907	2298	344970749857625
912	2287	344970750712873
920	2281	344970751550761
928	2282	344970752397362
939	2296	344970753156482
944	2310	344970753997315
941	2322	344970754831338
934	2328	344970755678972
931	2321	344970756494553
931	2302	344970757283958
932	2278	344970758115014
928	2265	344970758957253
923	2264	344970759772472
917	2273	344970760578806
908	2289	344970761368146
899	2306	344970762168986
896	2317	344970762958377
897	2324	344970763895236
898	2321	344970764730975
901	2305	344970765536069
899	2282	344970766313882
900	2262	344970767137378
898	2254	344970767785818
891	2259	344970768800100
879	2282	344970769676719
870	2303	344970770497433
865	2322	344970771313486
855	2333	344970772159641
848	2331	344970772983439
845	2310	344970773964215
846	2287	344970774835649
850	2273	344970775682966
852	2273	344970776473668
855	2281	344970777334645
858	2298	344970778157527
860	2315	344970778969309
860	2326	344970779821133
860	2323	344970780657241
851	2313	344970781468854
843	2295	344970782285167
839	2272	344970783094729
842	2258	344970783971961
856	2255	344970784661486
872	2262	344970785469057
896	2277	344970786275271
915	2294	344970787101463
927	2307	344970787909931
938	2312	344970788537992
941	2309	344970789381920
941	2295	344970790191471
940	2271	344970790998718
930	2253	344970791825940
922	2243	344970792746385
915	2241	344970793640904
907	2251	344970794476645
905	2265	344970795282907
903	2279	344970796090285
904	2287	344970796911601
905	2287	344970797738321
901	2274	344970798576020
897	2250	344970799434288
895	2228	344970800272104
891	2219	344970801032992
889	2219	344970801639511
883	2226	344970802465924
874	2242	344970803180238
866	2258	344970803997949
858	2269	344970804890930
851	2276	344970805729918
843	2268	344970806602020
833	2250	344970807315033
827	2231	344970808143168
822	2219	344970809001444
824	2219	344970809644861
829	2222	344970810464322
834	2236	344970811299978
833	2251	344970812119359
827	2262	344970812944159
823	2263	344970813937603
817	2250	344970814786332
813	2229	344970815634093
821	2204	344970816465661
833	2189	344970817287350
847	2182	344970818116277
861	2189	344970819060612
875	2204	344970819799901
887	2219	344970820647514
899	2232	344970821468831
910	2235	344970822273685
914	2230	344970823083415
914	2209	344970823927360
910	2188	344970824774752
901	2177	344970825615198
896	2175	344970826440218
895	2184	344970827238531
894	2200	344970828044640
900	2216	344970828967575
904	2222	344970829640173
905	2226	344970830285371
904	2223	344970831117792
899	2208	344970831928147
896	2184	344970832938582
885	2168	344970833926482
877	2164	344970834781112
874	2172	344970835621700
881	2190	344970836413539
894	2205	344970837231297
904	2217	344970838053251
909	2222	344970838979227
907	2215	344970839737102
904	2202	344970840561360
895	2180	344970841221888
892	2165	344970842032025
894	2157	344970842973647
901	2163	344970843959586
909	2177	344970844797736
917	2195	344970845634207
923	2210	344970846459388
923	2218	344970847266980
917	2217	344970848074109
906	2199	344970848932100
897	2177	344970849816407
894	2160	344970850667139
898	2156	344970851496065
902	2162	344970852310168
912	2177	344970853130588
929	2192	344970853984879
944	2205	344970854798799
944	2212	344970855645134
940	2204	344970856481000
932	2190	344970857309451
923	2168	344970858100041
914	2146	344970858949962
905	2134	344970859773585
895	2136	344970860589494
885	2148	344970861396013
876	2164	344970862190740
870	2179	344970862977185
860	2189	344970863926707
851	2187	344970864727670
842	2174	344970865586065
833	2150	344970866389961
828	2135	344970867175625
827	2129	344970867959672
830	2136	344970868929331
836	2154	344970869751901
838	2172	344970870655731
830	2188	344970871486815
827	2195	344970872295485
828	2192	344970873108751
823	2174	344970873919319
820	2152	344970874760584
822	2140	344970875604210
831	2141	344970876406825
851	2151	344970877229463
873	2171	344970878050732
891	2188	344970878983514
889	2197	344970879808997
881	2199	344970880645391
870	2192	344970881487674
865	2172	344970882305123
856	2158	344970883126569
846	2148	344970883982126
843	2141	344970884828406
854	2144	344970885681968
870	2156	344970886420079
881	2171	344970887235994
892	2183	344970888044670
897	2191	344970889081284
892	2186	344970889900156
887	2169	344970890690845
879	2148	344970891559859
876	2134	344970892385515
871	2130	344970893216753
861	2141	344970894077447
862	2159	344970894799394
873	2175	344970895651691
897	2189	344970896472466
917	2196	344970897165730
925	2193	344970897988724
920	2172	344970898923845
910	2148	344970899777001
905	2133	344970900627087
905	2131	344970901436338
909	2136	344970902259573
918	2149	344970903080237
922	2167	344970903989282
930	2180	344970904820829
942	2185	344970905648140
947	2182	344970906471960
938	2163	344970907281638
939	2143	344970908091220
946	2129	344970908984539
955	2124	344970909640547
963	2130	344970910452211
975	2146	344970911283865
1002	2160	344970912090460
1033	2172	344970912904137
1058	2175	344970913549570
1067	2172	344970914374697
1064	2156	344970915185528
1063	2133	344970916005466
1067	2117	344970916837453
1088	2104	344970917672686
1109	2103	344970918496135
1131	2112	344970919332704
1154	2128	344970920154094
1179	2143	344970920993798
1212	2152	344970921836031
1236	2151	344970922756798
1252	2141	344970923605578
1248	2122	344970924436806
1242	2100	344970925249344
1242	2091	344970926055550
1249	2091	344970926878602
1265	2107	344970927727915
1283	2122	344970928419671
1286	2141	344970929259597
1281	2154	344970930085306
1274	2156	344970930916345
1272	2150	344970931760420
1265	2133	344970932672311
1255	2108	344970933508204
1247	2095	344970934343773
1243	2093	344970935159075
1238	2104	344970935980744
1234	2122	344970936669125
1230	2140	344970937476578
1222	2160	344970938309649
1214	2169	344970939134289
1209	2164	344970939941717
1202	2149	344970940680291
1194	2131	344970941488994
1181	2108	344970942300891
1171	2097	344970943127585
1163	2107	344970943990118
1154	2129	344970944798374
1153	2144	344970945639686
1155	2158	344970946449447
1154	2164	344970947283052
1145	2166	344970948123230
1133	2151	344970948924528
1122	2130	344970949775390
1111	2113	344970950638587
1106	2109	344970951452878
1101	2116	344970952270890
1092	2130	344970953117521
1096	2148	344970953994901
1107	2163	344970954844916
1114	2170	344970955690989
1116	2164	344970956518201
1118	2147	344970957340510
1113	2124	344970958180761
1105	2109	344970959018543
1094	2108	344970959850970
1086	2117	344970960716424
1075	2132	344970961467454
1072	2147	344970962288876
1074	2159	344970963094395
1084	2163	344970963996443
1087	2154	344970964850328
1080	2138	344970965700105
1072	2113	344970966519140
1064	2096	344970967329249
1055	2088	344970968131996
1044	2091	344970968971384
1040	2106	344970969814557
1030	2123	344970970671765
1021	2145	344970971477820
1010	2159	344970972242451
