488	2457	345009435670052
483	2437	345009436449116
477	2417	345009437351563
472	2413	345009438224055
468	2422	345009439029428
469	2441	345009439835607
475	2463	345009440651703
482	2485	345009441448155
486	2495	345009442281534
490	2497	345009443127109
494	2486	345009443916476
495	2460	345009444726396
497	2438	345009445451501
500	2427	345009446283032
494	2428	345009447181768
495	2442	345009448003367
501	2464	345009448804747
509	2485	345009449586149
514	2502	345009450511775
517	2507	345009451348815
516	2496	345009452165154
511	2475	345009452993052
506	2449	345009453710864
504	2434	345009454519453
502	2432	345009455475749
496	2450	345009456294284
500	2472	345009457197790
504	2494	345009457948284
509	2506	345009458763769
514	2514	345009459573137
519	2504	345009460516701
522	2479	345009461342075
525	2461	345009462070190
521	2453	345009462855741
516	2457	345009463660740
513	2466	345009464464276
512	2489	345009465314962
511	2510	345009466169044
506	2522	345009466971677
504	2521	345009467774696
501	2502	345009468578663
499	2474	345009469390375
493	2446	345009470246992
488	2426	345009471074064
486	2415	345009471876715
486	2418	345009472455832
490	2429	345009473289170
499	2449	345009474152590
501	2470	345009474974209
497	2482	345009475800230
490	2482	345009476611314
484	2470	345009477383121
479	2449	345009478278654
478	2427	345009479112422
483	2420	345009479937149
490	2420	345009480746482
497	2429	345009481554667
499	2446	345009482385553
494	2462	345009483223361
492	2478	345009484028822
490	2486	345009484853042
496	2477	345009485652445
505	2452	345009486462415
512	2432	345009487352110
514	2423	345009488192799
518	2424	345009489003862
520	2438	345009489815087
523	2458	345009490636931
518	2475	345009491219513
518	2484	345009492044550
519	2488	345009492850733
521	2480	345009493651800
525	2457	345009494452275
529	2433	345009495285130
531	2417	345009496139812
531	2409	345009496961157
531	2411	345009497777818
531	2423	345009498580328
531	2436	345009499385284
525	2443	345009500219305
519	2446	345009501045005
516	2441	345009501698464
515	2428	345009502501299
518	2401	345009503330468
523	2382	345009504158079
530	2368	345009504961547
538	2365	345009505784323
546	2376	345009506584197
553	2392	345009507487010
556	2405	345009508324652
557	2413	345009509180221
554	2410	345009509968231
547	2401	345009510798246
542	2382	345009511600273
540	2357	345009512402983
539	2342	345009513237846
540	2341	345009514060001
546	2356	345009514870057
565	2380	345009515695741
583	2403	345009516493042
593	2420	345009517312328
595	2426	345009518149729
595	2424	345009518955858
588	2401	345009519761979
587	2392	345009520467253
591	2394	345009521329436
598	2397	345009522165358
613	2410	345009522970574
624	2429	345009523770503
631	2444	345009524573653
638	2453	345009525405846
641	2452	345009526261234
642	2442	345009527062660
635	2421	345009527870080
629	2397	345009528620907
625	2383	345009529427394
626	2372	345009530398851
633	2377	345009531245991
637	2391	345009532049597
639	2410	345009532852005
638	2425	345009533651112
633	2432	345009534458458
625	2427	345009535300806
620	2409	345009536220686
619	2382	345009537029421
619	2366	345009537841836
622	2361	345009538640788
627	2365	345009539244246
630	2374	345009540045958
629	2392	345009540887263
628	2410	345009541649570
629	2425	345009542448891
627	2430	345009543284177
620	2422	345009544086124
614	2401	345009544889960
607	2377	345009545729894
600	2372	345009546538119
596	2382	345009547430362
596	2396	345009548261661
596	2415	345009549078467
598	2426	345009549884805
597	2433	345009550729651
592	2427	345009551536425
588	2415	345009552369220
582	2396	345009553129969
580	2373	345009553734090
578	2361	345009554541460
576	2354	345009555517151
577	2366	345009556325668
573	2387	345009557229006
568	2414	345009557828847
568	2428	345009558647281
571	2435	345009559459492
573	2430	345009560311414
575	2408	345009561141045
582	2384	345009561948056
586	2367	345009562750262
588	2359	345009563496720
590	2364	345009564338915
589	2378	345009565192941
588	2392	345009566022788
580	2408	345009566833774
575	2421	345009567638404
572	2427	345009568352116
569	2423	345009569160472
563	2403	345009569981923
559	2378	345009570799132
553	2367	345009571604918
548	2368	345009572404490
543	2392	345009573231857
540	2424	345009574058717
534	2449	345009574888062
529	2457	345009575689548
526	2463	345009576498017
518	2451	345009577387234
514	2427	345009578127833
510	2407	345009578727290
505	2395	345009579550415
498	2389	345009580515969
498	2398	345009581330974
495	2418	345009582158155
491	2441	345009582853506
486	2451	345009583658703
481	2459	345009584480724
474	2458	345009585324966
471	2444	345009586175984
467	2419	345009586975578
463	2402	345009587785002
461	2396	345009588589689
456	2409	345009589353466
456	2426	345009590206861
450	2449	345009591034167
445	2463	345009591869840
444	2471	345009592677334
444	2476	345009593358573
445	2466	345009594228303
444	2441	345009595046067
440	2418	345009595867953
436	2404	345009596626646
431	2405	345009597493506
430	2419	345009598335164
426	2440	345009599187430
421	2460	345009599992397
419	2473	345009600824775
420	2482	345009601602491
416	2473	345009602410034
417	2447	345009603289738
419	2426	345009604151278
421	2412	345009604958520
423	2411	345009605652468
422	2417	345009606477761
418	2437	345009607377036
419	2457	345009608220961
422	2473	345009609050805
426	2484	345009609862000
424	2488	345009610688736
420	2471	345009611493625
416	2451	345009612105327
413	2443	345009612956165
410	2444	345009613653495
409	2453	345009614464190
409	2475	345009615304024
405	2498	345009616155351
400	2515	345009616967683
397	2523	345009617788837
396	2518	345009618589267
400	2501	345009619402034
407	2473	345009620240550
413	2452	345009621062565
417	2442	345009621648252
422	2444	345009622459054
427	2465	345009623305829
428	2489	345009624136017
426	2507	345009624853195
425	2517	345009625676085
421	2525	345009626482174
416	2523	345009627379139
414	2499	345009628235687
415	2480	345009628983587
415	2472	345009629791548
415	2473	345009630608839
416	2483	345009631414236
417	2509	345009632252428
412	2529	345009632861686
410	2541	345009633653350
407	2546	345009634466366
402	2541	345009635299077
398	2520	345009636257774
394	2496	345009637048728
390	2490	345009637874945
389	2492	345009638684623
387	2502	345009639486328
385	2515	345009640338458
382	2528	345009641193972
379	2539	345009641999918
374	2543	345009642803023
370	2537	345009643607118
368	2516	345009644416643
368	2486	345009645268203
368	2472	345009646138523
365	2462	345009646948675
363	2465	345009647755002
365	2482	345009648568547
369	2503	345009649386341
372	2525	345009650128243
372	2534	345009650963033
369	2533	345009651606827
366	2518	345009652435000
374	2489	345009653531139
388	2482	345009654611859
405	2487	345009655555167
415	2495	345009656394264
427	2507	345009657230726
433	2517	345009657860708
435	2522	345009658663662
436	2522	345009659477626
434	2513	345009660298111
429	2490	345009661164318
429	2466	345009661969566
432	2449	345009662793077
431	2443	345009663598093
434	2449	345009664387335
439	2467	345009665238669
447	2484	345009666061208
450	2504	345009666870958
450	2512	345009667679976
449	2508	345009668362266
444	2492	345009669200866
442	2468	345009670028474
443	2454	345009670828251
442	2443	345009671639806
442	2447	345009672443184
439	2465	345009673284004
438	2489	345009674098002
442	2510	345009674919724
442	2522	345009675743102
441	2518	345009676549164
436	2500	345009677406437
433	2474	345009678127741
429	2460	345009678742192
425	2452	345009679563737
422	2450	345009680528157
423	2453	345009681350875
421	2464	345009682206175
418	2473	345009682866962
416	2476	345009683673435
411	2477	345009684495304
410	2471	345009685234881
409	2454	345009686061435
406	2429	345009686869286
401	2411	345009687682981
401	2398	345009688492845
404	2397	345009689364605
411	2407	345009690212030
418	2422	345009691039779
421	2436	345009691868008
424	2440	345009692677430
429	2434	345009693366198
430	2421	345009694280269
431	2395	345009695097607
430	2374	345009695926813
424	2362	345009696727716
421	2358	345009697499589
419	2364	345009698342113
414	2385	345009699189608
414	2409	345009700002379
420	2424	345009700832902
423	2429	345009701613873
424	2423	345009702428690
421	2402	345009703264484
416	2382	345009704089388
411	2373	345009704896926
407	2376	345009705654120
403	2389	345009706481551
401	2425	345009707383989
402	2457	345009708229055
409	2479	345009709058655
412	2478	345009709870073
411	2464	345009710697230
410	2439	345009711499636
410	2423	345009712116760
407	2418	345009712923311
403	2422	345009713652230
401	2433	345009714469038
402	2456	345009715444667
407	2468	345009716238064
411	2477	345009717047851
413	2480	345009717861398
409	2470	345009718684244
407	2443	345009719491931
407	2425	345009720326641
407	2412	345009721193159
409	2405	345009722000619
414	2411	345009722806829
416	2424	345009723614049
415	2439	345009724419543
411	2452	345009725257312
408	2458	345009726017103
410	2458	345009726619655
414	2443	345009727462397
421	2417	345009728326814
429	2402	345009729166236
436	2397	345009729975963
440	2402	345009730799016
440	2416	345009731599755
438	2434	345009732418498
441	2445	345009733116895
444	2450	345009733927320
447	2443	345009734738628
441	2428	345009735555584
442	2406	345009736395287
450	2379	345009737123686
455	2365	345009737929843
461	2358	345009738745633
465	2361	345009739549230
461	2379	345009740527180
464	2399	345009741244861
466	2415	345009742056777
472	2427	345009742857145
476	2425	345009743660859
477	2407	345009744464129
474	2386	345009745323295
467	2375	345009746183732
462	2370	345009746990978
455	2370	345009747792506
452	2377	345009748600626
447	2398	345009749412863
440	2416	345009750262927
439	2428	345009751086773
433	2430	345009751891315
431	2410	345009752716289
431	2389	345009753524693
430	2381	345009754361765
428	2382	345009755352405
424	2388	345009756199050
426	2406	345009757008660
433	2431	345009757869465
434	2447	345009758720505
431	2448	345009759532937
428	2435	345009760490964
431	2410	345009761340522
441	2389	345009762120286
449	2380	345009762936154
463	2380	345009763755026
477	2388	345009764534461
494	2407	345009765394045
502	2423	345009766240492
503	2435	345009767025674
499	2439	345009767807293
495	2435	345009768588471
489	2417	345009769390654
488	2394	345009770226398
493	2383	345009771022412
500	2377	345009771804013
512	2381	345009772466573
526	2390	345009773276451
541	2403	345009774056509
553	2417	345009774847299
561	2428	345009775642021
567	2427	345009776425115
570	2413	345009777297146
566	2398	345009778083398
560	2375	345009778717447
557	2364	345009779510223
552	2367	345009780323317
558	2370	345009780963427
566	2379	345009781766885
573	2395	345009782574528
575	2413	345009783411704
575	2419	345009784269024
573	2414	345009784994920
568	2401	345009785825799
566	2377	345009786630977
570	2358	345009787480127
576	2347	345009788320216
584	2349	345009789130490
593	2358	345009789939609
595	2374	345009790766559
596	2388	345009791561941
593	2397	345009792377204
589	2395	345009793211566
592	2385	345009794034790
598	2360	345009794843955
602	2336	345009795667597
606	2319	345009796494657
611	2314	345009797340191
615	2320	345009798187010
618	2339	345009798981817
617	2363	345009799796574
618	2382	345009800625731
613	2387	345009801454666
610	2375	345009802287479
611	2355	345009803082284
613	2334	345009803751414
617	2328	345009804558397
632	2337	345009805403570
644	2347	345009806226487
655	2364	345009807041679
664	2382	345009807835112
666	2396	345009808628939
662	2399	345009809446144
655	2394	345009810388786
658	2370	345009811222915
667	2346	345009811967550
677	2330	345009812755113
686	2326	345009813549950
695	2332	345009814356968
705	2349	345009815160632
710	2372	345009815974581
714	2391	345009816762466
712	2399	345009817547314
707	2394	345009818221166
703	2382	345009818997203
707	2358	345009819779257
718	2338	345009820608253
726	2319	345009821180910
733	2312	345009821994799
741	2316	345009822798038
749	2336	345009823620580
753	2363	345009824434446
747	2390	345009825292437
739	2406	345009826156572
732	2411	345009826963191
724	2394	345009827789412
716	2373	345009828597045
707	2361	345009829428533
700	2363	345009830263053
695	2379	345009831089514
692	2401	345009831840860
687	2426	345009832667707
682	2444	345009833476272
678	2449	345009834312629
675	2442	345009835004022
668	2424	345009835829764
662	2401	345009836634333
655	2391	345009837473854
646	2393	345009838322254
646	2402	345009839132914
645	2416	345009839956175
646	2433	345009840788296
647	2445	345009841600943
645	2450	345009842430733
637	2444	345009843256819
631	2428	345009844064782
625	2402	345009844826485
619	2386	345009845655028
616	2377	345009846465530
614	2378	345009847222682
616	2382	345009848030880
618	2391	345009848844485
612	2401	345009849506085
606	2410	345009850347038
602	2416	345009851205299
596	2409	345009852034915
596	2387	345009852843661
597	2364	345009853652122
603	2346	345009854471040
609	2337	345009855307432
614	2337	345009856164485
621	2348	345009856986002
622	2359	345009857653144
619	2369	345009858463808
617	2374	345009859289351
608	2377	345009860008457
602	2371	345009860836913
597	2356	345009861666139
590	2334	345009862443330
584	2324	345009863323202
581	2329	345009864132332
584	2350	345009864947029
586	2375	345009865774681
586	2394	345009866600394
587	2403	345009867487372
586	2397	345009868259504
582	2383	345009869056724
577	2360	345009869652775
576	2338	345009870388551
573	2324	345009871247494
570	2315	345009872052550
568	2317	345009872847557
567	2337	345009873651152
566	2364	345009874456083
565	2383	345009875294053
560	2392	345009876166875
554	2398	345009876970914
551	2397	345009877652660
548	2384	345009878456573
541	2364	345009879300319
537	2361	345009880109843
537	2369	345009880760381
540	2381	345009881572494
542	2403	345009882408716
538	2425	345009883295834
532	2441	345009884105580
527	2444	345009884879064
521	2436	345009885651918
519	2416	345009886496862
520	2389	345009887395669
521	2374	345009888252183
526	2366	345009889058816
528	2372	345009889865773
532	2385	345009890684442
532	2401	345009891274128
532	2411	345009892078455
527	2415	345009892909822
522	2413	345009893695391
519	2404	345009894507409
514	2382	345009895264188
508	2369	345009896075353
506	2361	345009896880127
510	2353	345009897512973
511	2357	345009898355707
509	2363	345009899208385
505	2370	345009900003369
505	2379	345009900834075
503	2381	345009901638399
499	2368	345009902459533
495	2347	345009903296654
491	2324	345009904100574
489	2311	345009904925385
492	2311	345009905652826
497	2322	345009906478673
499	2340	345009907381873
502	2355	345009908226686
497	2365	345009909041362
494	2368	345009909873417
488	2356	345009910703058
483	2332	345009911512600
479	2314	345009912339777
476	2304	345009913173767
471	2305	345009913982749
473	2319	345009914808335
476	2337	345009915633969
477	2352	345009916261136
475	2359	345009917089695
471	2365	345009917911114
466	2361	345009918695274
460	2345	345009919468386
458	2317	345009920386146
458	2304	345009921223930
460	2301	345009922050519
462	2310	345009922860782
467	2329	345009923666649
470	2349	345009924466299
471	2365	345009925300344
470	2368	345009926133861
465	2362	345009926957722
461	2339	345009927770171
459	2320	345009928559989
460	2308	345009929409192
465	2305	345009930252153
468	2310	345009931075457
469	2323	345009931902373
470	2338	345009932711768
472	2351	345009933525098
469	2355	345009934359231
463	2346	345009935013262
460	2326	345009935841356
461	2304	345009936665925
462	2297	345009937501053
463	2291	345009938340502
466	2294	345009939142673
471	2302	345009939952877
480	2319	345009940784446
485	2336	345009941618982
486	2347	345009942438287
484	2348	345009943267858
481	2337	345009944077142
475	2313	345009944881594
471	2300	345009945651429
469	2297	345009946481393
470	2305	345009947388479
472	2322	345009948233643
474	2341	345009948993264
474	2359	345009949802948
470	2368	345009950629065
464	2366	345009951431658
458	2347	345009952267598
453	2323	345009953069355
451	2303	345009953654417
447	2293	345009954465559
444	2288	345009955304187
441	2298	345009956177045
444	2322	345009956984624
449	2346	345009957801542
453	2360	345009958623811
448	2363	345009959443827
447	2356	345009960285921
447	2332	345009961127830
449	2313	345009961938135
454	2303	345009962750230
457	2299	345009963552811
466	2301	345009964392498
472	2308	345009965215111
472	2316	345009966061997
468	2323	345009966874582
463	2329	345009967691827
460	2328	345009968267787
457	2321	345009969081084
459	2299	345009969892491
462	2275	345009970736153
462	2264	345009971544838
469	2263	345009972381914
477	2272	345009973143345
484	2287	345009973952918
494	2302	345009974544968
503	2315	345009975526235
510	2314	345009976362086
513	2304	345009977260775
515	2278	345009978087147
515	2261	345009978768706
510	2249	345009979574923
507	2237	345009980551503
509	2241	345009981386017
514	2251	345009982226801
519	2268	345009982892040
524	2279	345009983698384
528	2284	345009984502483
527	2282	345009985355576
525	2265	345009986212184
520	2241	345009987017728
514	2228	345009987840049
512	2225	345009988645408
513	2233	345009989456984
517	2251	345009990127858
518	2266	345009990954626
517	2281	345009991765984
511	2290	345009992570515
506	2290	345009993270635
504	2283	345009994084975
501	2264	345009994911711
494	2243	345009995737594
488	2234	345009996547975
483	2241	345009997314691
481	2252	345009998136839
481	2273	345009998942144
480	2294	345009999768624
482	2306	345010000592596
478	2311	345010001427354
472	2304	345010002281937
469	2283	345010003094131
464	2261	345010003898331
460	2249	345010004724511
456	2245	345010005595313
452	2255	345010006429679
452	2277	345010007333307
450	2304	345010008169971
444	2324	345010008976101
441	2332	345010009652133
441	2326	345010010560977
440	2305	345010011396163
443	2287	345010012024651
442	2283	345010012832594
441	2284	345010013640704
437	2294	345010014464922
432	2309	345010015295655
429	2328	345010016122915
430	2338	345010016950847
428	2342	345010017653065
427	2340	345010018281586
423	2329	345010019105794
421	2304	345010019919265
420	2291	345010020644528
418	2285	345010021452188
421	2286	345010022290190
423	2299	345010023098463
423	2318	345010023926684
426	2330	345010024514139
422	2335	345010025483740
418	2338	345010026321842
415	2329	345010027131235
413	2305	345010027947916
411	2284	345010028650478
410	2272	345010029463250
410	2266	345010030309293
408	2271	345010031227086
409	2291	345010032008929
408	2306	345010032816415
412	2323	345010033591661
411	2334	345010034434465
405	2330	345010035267490
402	2308	345010036124159
405	2293	345010036938024
408	2283	345010037773235
406	2281	345010038578317
404	2289	345010039417749
400	2307	345010040259984
395	2325	345010041107775
393	2338	345010041893073
391	2343	345010042706294
387	2342	345010043378283
387	2332	345010044217097
387	2310	345010045022293
385	2287	345010045862269
381	2276	345010046682597
378	2281	345010047436522
377	2296	345010048286708
375	2320	345010049092775
371	2339	345010049858612
369	2349	345010050704109
374	2352	345010051511362
383	2339	345010052347547
392	2318	345010053108900
402	2295	345010053715098
407	2283	345010054519112
415	2277	345010055366395
422	2281	345010056219669
428	2298	345010057026356
433	2317	345010057846872
431	2335	345010058660547
426	2345	345010059513232
421	2340	345010060368632
419	2320	345010061209399
415	2297	345010062020937
414	2285	345010062846052
415	2279	345010063654726
416	2285	345010064459994
421	2305	345010065325654
424	2327	345010066220050
425	2338	345010067026521
421	2344	345010067843945
419	2333	345010068651202
415	2314	345010069462565
410	2290	345010070323894
407	2276	345010071152098
402	2273	345010071965745
400	2282	345010072772603
401	2308	345010073595960
401	2333	345010074437291
397	2352	345010075295734
393	2358	345010076126925
392	2357	345010076932715
388	2338	345010077652075
385	2317	345010078458157
379	2302	345010079277372
375	2296	345010080078489
374	2303	345010080789897
375	2319	345010081601339
376	2343	345010082451692
381	2364	345010083286160
390	2378	345010084094687
398	2385	345010084894732
410	2372	345010085651757
415	2350	345010086462226
415	2331	345010087374990
413	2323	345010088221750
412	2327	345010089028798
416	2343	345010089858718
424	2366	345010090686276
430	2385	345010091520104
437	2398	345010092374402
444	2398	345010093221557
453	2388	345010094046086
462	2364	345010094849765
472	2344	345010095675831
477	2332	345010096484547
481	2331	345010097416581
479	2343	345010098282595
479	2363	345010099100478
476	2379	345010099906885
471	2393	345010100742053
468	2401	345010101546157
464	2393	345010102391844
457	2373	345010103222362
456	2351	345010104030005
459	2338	345010104851451
465	2337	345010105652375
473	2347	345010106463567
478	2373	345010107368657
476	2405	345010108210405
472	2430	345010109022081
473	2440	345010109850668
470	2423	345010110682443
463	2398	345010111491451
462	2381	345010112319792
460	2374	345010113125457
457	2375	345010113906392
454	2386	345010114702665
446	2403	345010115574898
441	2417	345010116384832
438	2425	345010117207296
434	2426	345010117991377
431	2416	345010118769495
432	2398	345010119543382
432	2373	345010120355592
430	2354	345010121187337
429	2345	345010121987678
428	2348	345010122768373
429	2366	345010123549402
429	2389	345010124352960
428	2405	345010125162477
422	2416	345010125964429
419	2417	345010126628525
414	2408	345010127493789
412	2382	345010128300817
411	2365	345010129107006
413	2353	345010129916589
420	2351	345010130745875
429	2363	345010131568733
434	2383	345010132384058
434	2402	345010133154068
433	2418	345010133981577
429	2425	345010134785461
424	2419	345010135609525
418	2397	345010136493650
413	2378	345010137398682
410	2373	345010138244201
410	2378	345010139066427
414	2395	345010139869252
420	2413	345010140698138
426	2427	345010141513729
430	2439	345010142357004
436	2442	345010143191228
438	2433	345010143980793
439	2412	345010144794419
439	2388	345010145420447
435	2378	345010146282112
432	2380	345010147091020
435	2393	345010147906022
444	2413	345010148667639
446	2427	345010149540005
446	2432	345010150386966
446	2433	345010151272371
439	2424	345010152079123
435	2398	345010152890194
433	2381	345010153665200
427	2364	345010154475585
421	2345	345010155455352
420	2346	345010156298799
425	2356	345010157079629
426	2369	345010157868880
425	2377	345010158660294
422	2380	345010159432961
425	2382	345010160314988
439	2373	345010161106416
452	2353	345010161885065
461	2330	345010162659876
471	2316	345010163436598
482	2317	345010164132664
494	2330	345010164912316
504	2358	345010165732155
512	2383	345010166514560
513	2403	345010167393071
507	2408	345010168208454
505	2394	345010169025102
510	2370	345010169833005
527	2355	345010170675333
546	2351	345010171481778
566	2352	345010172318606
584	2365	345010173079066
604	2385	345010173888416
627	2412	345010174539833
646	2432	345010175393445
671	2438	345010176248810
685	2425	345010177055984
684	2401	345010177862112
675	2378	345010178666931
675	2368	345010179474109
679	2371	345010180331710
685	2381	345010181007919
691	2396	345010181787180
694	2418	345010182565665
698	2435	345010183345786
698	2442	345010184122281
697	2437	345010184887437
699	2418	345010185603496
696	2396	345010186413830
694	2376	345010187275412
692	2362	345010188057289
686	2358	345010188837841
682	2364	345010189634415
682	2386	345010190578392
680	2414	345010191493749
681	2433	345010192355296
685	2442	345010193196487
680	2435	345010194008787
673	2409	345010194838571
666	2392	345010195666157
659	2386	345010196478417
656	2388	345010197238643
657	2396	345010198057704
659	2415	345010198864585
659	2434	345010199542458
655	2448	345010200377785
650	2456	345010201235399
648	2443	345010202033959
645	2421	345010202841524
639	2397	345010203650170
632	2384	345010204470716
629	2375	345010205592002
635	2386	345010206451432
639	2411	345010207387632
639	2434	345010208230956
632	2437	345010209040843
625	2431	345010209845561
616	2416	345010210641899
615	2390	345010211478006
616	2369	345010212333581
623	2354	345010213139491
629	2345	345010213949858
633	2338	345010214769813
636	2340	345010215603906
639	2355	345010216444807
643	2372	345010217372743
641	2378	345010218209064
633	2373	345010219014341
629	2353	345010219793763
629	2334	345010220536885
637	2323	345010221369179
649	2319	345010222234018
660	2329	345010223038931
673	2347	345010223854319
684	2366	345010224549218
689	2377	345010225388281
693	2377	345010226248801
691	2371	345010227074678
684	2359	345010227888589
683	2336	345010228671932
683	2326	345010229500016
683	2330	345010230472590
681	2343	345010231319584
674	2358	345010232146297
674	2364	345010232799712
676	2370	345010233610300
682	2378	345010234443086
686	2377	345010235284988
684	2362	345010236112338
682	2337	345010236940718
685	2315	345010237758933
692	2303	345010238567159
697	2302	345010239395565
701	2315	345010240230731
704	2336	345010241061576
707	2361	345010241903222
703	2381	345010242713936
701	2390	345010243302865
706	2387	345010244123213
713	2370	345010244933697
719	2351	345010245746945
718	2346	345010246549493
715	2354	345010247425310
708	2375	345010248264551
700	2399	345010249087798
696	2416	345010249677436
690	2425	345010250609745
691	2426	345010251450228
698	2409	345010252291198
706	2389	345010253101739
716	2379	345010253927992
720	2374	345010254738493
721	2367	345010255621900
721	2369	345010256474358
723	2383	345010257391854
725	2399	345010258238119
724	2406	345010259064225
721	2405	345010259868895
715	2388	345010260699071
706	2362	345010261603583
700	2345	345010262444253
700	2334	345010263280947
713	2336	345010264050126
727	2344	345010264860491
733	2359	345010265691697
737	2372	345010266497918
733	2384	345010267407844
728	2386	345010268242898
725	2369	345010269065237
720	2347	345010269662629
714	2334	345010270606212
710	2318	345010271459978
704	2312	345010272294330
708	2320	345010273101821
711	2339	345010273905201
706	2354	345010274549137
704	2363	345010275382769
706	2377	345010276246117
703	2384	345010277054803
700	2370	345010277654152
699	2352	345010278472099
700	2338	345010279330151
692	2337	345010280139746
686	2345	345010280802731
683	2358	345010281614289
676	2380	345010282447089
675	2396	345010283277407
678	2409	345010284083682
673	2412	345010284892888
665	2407	345010285737845
669	2382	345010286550055
673	2371	345010287445525
680	2368	345010288305145
688	2368	345010289051881
687	2374	345010289653061
691	2388	345010290617504
701	2409	345010291309672
709	2419	345010292119314
720	2425	345010292946845
733	2419	345010293736727
741	2398	345010294511393
741	2374	345010295302700
736	2359	345010296129988
731	2355	345010296941172
725	2360	345010297779882
724	2375	345010298582584
737	2398	345010299432815
750	2418	345010300287324
773	2426	345010301114919
794	2419	345010301923625
806	2401	345010302750974
814	2378	345010303560167
813	2363	345010304396721
805	2364	345010305231176
807	2374	345010305866432
815	2387	345010306677124
836	2410	345010307578399
860	2430	345010308418840
875	2438	345010309258384
886	2436	345010309991380
889	2423	345010310817142
890	2397	345010311628328
890	2380	345010312478166
888	2376	345010313323180
881	2382	345010314119252
875	2399	345010314944701
884	2420	345010315772027
907	2441	345010316578784
944	2448	345010317441307
966	2440	345010318289322
987	2415	345010319099336
993	2391	345010319907463
985	2372	345010320749970
978	2366	345010321540968
989	2370	345010322398246
1011	2382	345010323241463
1037	2396	345010324060415
1064	2408	345010324634261
1086	2414	345010325604132
1100	2414	345010326445875
1099	2400	345010327369843
1091	2375	345010328177951
1092	2353	345010328983616
1092	2340	345010329812446
1091	2341	345010330639486
1100	2350	345010331478232
1119	2367	345010332311897
1134	2382	345010333136307
1143	2391	345010333952657
1139	2396	345010334786842
1128	2387	345010335624729
1126	2365	345010336465177
1128	2343	345010337374507
1131	2335	345010338265067
1129	2335	345010339076674
1118	2348	345010339896829
1105	2367	345010340719489
1096	2380	345010341533767
1084	2388	345010342387915
1073	2383	345010343218233
1061	2370	345010344022575
1050	2348	345010344825450
1043	2324	345010345652932
1034	2304	345010346488612
1024	2291	345010347418165
1011	2290	345010348270631
1003	2303	345010349079697
993	2315	345010349879457
983	2327	345010350709196
983	2333	345010351517941
990	2328	345010352370078
1004	2307	345010353180192
1026	2287	345010353991100
1048	2273	345010354818410
1063	2267	345010355645134
1064	2271	345010356482327
1056	2285	345010357242540
1052	2291	345010357834242
1053	2296	345010358650023
1061	2299	345010359492538
1073	2291	345010360333815
1083	2270	345010361161316
1088	2246	345010361970772
1083	2232	345010362781406
1072	2224	345010363569887
1060	2226	345010364419233
1049	2236	345010365252201
1041	2246	345010366077429
1032	2260	345010366899659
1024	2267	345010367713425
1020	2268	345010368313935
1017	2264	345010369142084
1014	2245	345010369955446
1010	2226	345010370764787
1000	2220	345010371571585
989	2232	345010372408119
982	2256	345010373364273
972	2286	345010374233031
973	2306	345010375039287
982	2313	345010375867446
986	2309	345010376561159
983	2301	345010377445837
974	2279	345010378282902
963	2258	345010379106579
956	2249	345010379916423
952	2249	345010380742474
947	2264	345010381568669
944	2285	345010382402942
945	2305	345010383232701
939	2316	345010384055328
932	2319	345010384757816
924	2307	345010385635686
917	2279	345010386520497
913	2261	345010387419963
911	2251	345010388246599
910	2249	345010389062281
910	2258	345010389652482
911	2271	345010390625014
908	2283	345010391544488
904	2287	345010392366866
898	2286	345010393175628
894	2277	345010393999451
886	2256	345010394800496
881	2233	345010395632218
882	2209	345010396488391
877	2195	345010397422003
876	2198	345010398134795
882	2216	345010398931808
895	2242	345010399569450
913	2258	345010400405665
927	2267	345010401290377
935	2262	345010402106679
933	2243	345010402919214
923	2220	345010403691333
913	2209	345010404500213
904	2203	345010405342780
898	2210	345010406160719
897	2228	345010406970127
900	2252	345010407788086
894	2275	345010408610611
885	2287	345010409444456
877	2285	345010410287866
875	2265	345010411136069
874	2243	345010411942626
867	2237	345010412753163
860	2238	345010413557920
852	2248	345010414393962
846	2260	345010415227430
843	2276	345010416074941
846	2293	345010416888149
851	2302	345010417654922
854	2296	345010418487788
855	2273	345010419373525
856	2253	345010420186809
853	2237	345010420949723
848	2227	345010421764521
845	2226	345010422445810
839	2236	345010423301465
832	2252	345010424108445
829	2266	345010424890165
826	2279	345010425646165
818	2284	345010426490340
813	2279	345010427438462
818	2261	345010428300943
825	2238	345010428944087
832	2227	345010429772674
842	2228	345010430655739
848	2243	345010431494127
850	2266	345010432332490
850	2292	345010433241087
843	2306	345010434053999
850	2309	345010434864229
866	2302	345010435704652
874	2278	345010436516087
882	2259	345010437392373
887	2249	345010438127346
886	2247	345010438935143
876	2258	345010439742947
875	2279	345010440647701
884	2298	345010441492337
895	2314	345010442330143
905	2317	345010443156301
906	2312	345010443965915
912	2291	345010444776834
915	2268	345010445647075
907	2259	345010446489022
910	2262	345010447396613
923	2277	345010448247101
936	2300	345010449054440
945	2318	345010449859421
945	2328	345010450703785
939	2329	345010451512077
936	2319	345010452346319
936	2297	345010453112281
933	2277	345010453705102
928	2268	345010454516502
924	2263	345010455373622
930	2270	345010456225370
937	2284	345010457027635
941	2301	345010457842921
945	2315	345010458660357
940	2321	345010459471289
939	2318	345010460327796
937	2306	345010461152187
936	2280	345010461948458
932	2261	345010462778720
926	2251	345010463587514
919	2253	345010464422945
911	2267	345010465279618
905	2288	345010466111280
906	2304	345010466921451
909	2312	345010467727554
919	2308	345010468538525
926	2292	345010469377170
918	2267	345010470323302
916	2246	345010471142898
915	2238	345010471948552
916	2243	345010472756902
920	2255	345010473568763
923	2270	345010474403849
923	2284	345010475255780
920	2293	345010476082695
913	2293	345010476892295
915	2280	345010477656156
921	2259	345010478494700
927	2241	345010479333013
931	2237	345010480133445
936	2243	345010480962598
944	2259	345010481777938
947	2280	345010482605979
949	2292	345010483436265
952	2294	345010484279615
955	2287	345010484950859
961	2271	345010485652353
957	2248	345010486499633
945	2227	345010487429772
938	2219	345010488266406
941	2219	345010489072049
946	2233	345010489894296
957	2250	345010490725445
969	2267	345010491567823
988	2280	345010492417652
1004	2283	345010493198308
1015	2274	345010494009510
1019	2252	345010494819233
1019	2227	345010495708648
1011	2216	345010496522303
1001	2216	345010497405529
989	2225	345010498256074
983	2242	345010499070930
983	2259	345010499865943
987	2273	345010500694380
985	2281	345010501507750
973	2272	345010502354832
966	2253	345010503161862
959	2229	345010503959765
952	2212	345010504796307
943	2208	345010505639657
933	2220	345010506476296
924	2243	345010507379380
914	2267	345010508189039
905	2283	345010508983328
906	2291	345010509654406
918	2283	345010510623863
927	2258	345010511531319
937	2245	345010512334999
940	2238	345010513140774
937	2237	345010513953223
934	2245	345010514781689
929	2254	345010515657550
925	2260	345010516495927
917	2267	345010517392968
908	2271	345010518133454
906	2271	345010518939013
911	2257	345010519740802
913	2231	345010520652276
920	2213	345010521495558
925	2208	345010522400117
929	2217	345010523241209
929	2230	345010524050708
927	2244	345010524702017
922	2257	345010525636231
913	2263	345010526474964
908	2256	345010527398597
902	2239	345010528235179
898	2216	345010529046622
895	2192	345010529654006
895	2186	345010530618548
890	2197	345010531460567
882	2221	345010532286729
885	2241	345010533075149
887	2255	345010533886840
882	2267	345010534714479
874	2263	345010535635176
869	2243	345010536474729
865	2227	345010537374218
857	2218	345010538186801
854	2221	345010538993050
845	2229	345010539816175
842	2242	345010540643886
844	2257	345010541443243
848	2265	345010542305557
848	2268	345010543116315
840	2264	345010543922728
833	2246	345010544722598
831	2220	345010545624868
824	2201	345010546465182
813	2194	345010547388992
818	2204	345010548192835
829	2222	345010548999326
843	2243	345010549802254
863	2261	345010550646081
877	2269	345010551478621
882	2261	345010552381301
881	2241	345010553197567
874	2229	345010554006993
876	2227	345010554807440
892	2227	345010555647834
913	2234	345010556483842
938	2252	345010557245466
957	2267	345010557839449
972	2277	345010558647472
988	2284	345010559555038
994	2281	345010560391403
993	2258	345010561245007
987	2240	345010561958738
977	2232	345010562768931
968	2229	345010563576203
970	2232	345010564427195
985	2239	345010565262424
996	2244	345010566098595
993	2245	345010566921081
985	2248	345010567730833
975	2243	345010568535947
966	2226	345010569380257
955	2205	345010570204054
945	2185	345010571031899
936	2172	345010571835285
928	2166	345010572459418
924	2171	345010573309583
922	2187	345010574159451
915	2208	345010574969655
909	2226	345010575797079
903	2237	345010576585623
902	2239	345010577487196
901	2219	345010578133868
900	2203	345010578959369
900	2191	345010579766124
909	2191	345010580659663
917	2201	345010581515365
910	2221	345010582354463
908	2237	345010583161007
905	2246	345010583989523
909	2250	345010584804269
915	2243	345010585634546
926	2227	345010586474129
942	2203	345010587380224
960	2186	345010588181883
977	2181	345010589010884
985	2189	345010589823549
986	2205	345010590648055
978	2226	345010591622568
979	2235	345010592459986
982	2233	345010593210360
988	2224	345010594030453
988	2204	345010594839371
989	2184	345010595661603
998	2172	345010596522413
1008	2167	345010597489074
1010	2174	345010598410044
1007	2188	345010599212791
996	2199	345010600021243
989	2209	345010600853232
989	2212	345010601589631
995	2206	345010602423546
1012	2187	345010603258233
1032	2166	345010604058007
1038	2153	345010604867139
1038	2151	345010605655421
1032	2163	345010606510490
1033	2188	345010607425035
1029	2208	345010608266635
1017	2220	345010609099373
1016	2224	345010609912510
1020	2216	345010610729451
1019	2194	345010611533085
1018	2175	345010612373029
1019	2166	345010613178753
1020	2165	345010614003949
1023	2174	345010614813787
1030	2192	345010615653940
1034	2211	345010616482774
1031	2222	345010617313150
1023	2224	345010618122541
1018	2212	345010618944434
1018	2191	345010619748688
1023	2172	345010620660874
1023	2160	345010621518842
1021	2156	345010622355250
1022	2164	345010623161920
1028	2178	345010623966130
1029	2189	345010624706650
1028	2194	345010625643070
1022	2194	345010626506584
1014	2186	345010627419740
1016	2169	345010628254843
1027	2143	345010629087794
1043	2125	345010629903297
1055	2114	345010630713515
1067	2113	345010631538911
1067	2128	345010632376397
1069	2143	345010633168520
1069	2154	345010633999439
1062	2159	345010634819840
1053	2154	345010635651937
1045	2136	345010636538307
1036	2111	345010637453393
1035	2101	345010638344395
1045	2098	345010639093392
1050	2106	345010639901563
1055	2124	345010640734897
1061	2140	345010641543931
1064	2155	345010642382354
1073	2162	345010643188360
1088	2159	345010644007155
1103	2143	345010644815298
1122	2122	345010645651202
1135	2114	345010646514687
1132	2115	345010647344823
1121	2120	345010648153296
1111	2137	345010648912109
1099	2153	345010649721889
1089	2172	345010650706680
1077	2178	345010651541654
1068	2176	345010652378685
1061	2156	345010653188699
1049	2135	345010654007030
1039	2121	345010654826025
1036	2119	345010655662762
1037	2128	345010656490267
1033	2146	345010657314964
1027	2164	345010658131780
1019	2177	345010658955393
1009	2179	345010659758287
997	2167	345010660671435
989	2147	345010661501903
992	2122	345010662338816
1009	2103	345010663141914
1022	2095	345010663966950
1026	2097	345010664774254
1026	2108	345010665659965
1019	2122	345010666475867
1010	2132	345010667372511
1006	2139	345010668178559
1006	2134	345010669005667
1012	2116	345010669818212
1019	2091	345010670670286
1028	2070	345010671526752
1036	2062	345010672344976
1044	2064	345010673156982
1056	2075	345010673968306
1064	2086	345010674777437
1066	2096	345010675636132
1059	2106	345010676495209
1051	2106	345010677388885
1047	2092	345010678177092
1051	2069	345010678981365
1055	2050	345010679792694
1055	2032	345010680672120
1072	2029	345010681528420
1086	2041	345010682376224
1093	2062	345010683181622
1097	2080	345010684004985
1093	2089	345010684790216
1085	2084	345010685671048
1087	2065	345010686477521
1095	2046	345010687375358
1110	2034	345010688181801
1125	2033	345010689008004
1143	2043	345010689653234
1156	2059	345010690611627
1160	2079	345010691332632
1159	2088	345010692140652
1152	2093	345010692948396
1143	2088	345010693776270
1137	2072	345010694580323
1141	2049	345010695388442
1145	2036	345010696248755
1149	2034	345010697057934
1159	2042	345010697903744
1181	2060	345010698786654
1195	2077	345010699475794
1197	2087	345010700474074
1191	2096	345010701313079
1180	2093	345010702067485
1179	2080	345010702874639
1179	2058	345010703611103
1175	2042	345010704444419
1175	2037	345010705279290
1183	2046	345010706129905
1199	2064	345010706934218
1215	2085	345010707751598
1214	2104	345010708573762
1211	2117	345010709533232
1206	2116	345010710359540
1193	2100	345010711204381
1182	2078	345010711987936
1184	2067	345010712791271
1191	2063	345010713614580
1193	2069	345010714439722
1192	2084	345010715276581
1184	2106	345010716114130
1175	2120	345010716926994
1164	2128	345010717654333
1154	2128	345010718499677
1143	2115	345010719336468
1133	2091	345010720142102
1124	2075	345010720990293
1119	2067	345010721804187
1126	2070	345010722609899
1142	2084	345010723461058
1155	2101	345010724305829
1151	2122	345010725108398
1143	2136	345010725949141
1139	2140	345010726616913
1129	2132	345010727514895
1120	2110	345010728346742
1111	2093	345010729153138
1107	2085	345010729960684
1107	2086	345010730724069
1115	2097	345010731528107
1116	2114	345010732358251
1110	2132	345010733154743
1102	2146	345010733960347
1092	2152	345010734769305
1082	2145	345010735668976
1073	2129	345010736503091
1064	2103	345010737469241
1063	2090	345010738339261
1063	2089	345010739097238
1053	2100	345010739907822
1051	2121	345010740724693
1056	2143	345010741540419
1064	2159	345010742380602
1075	2169	345010743199229
1088	2166	345010744018598
1098	2153	345010744828472
1111	2130	345010745651450
1127	2119	345010746494646
1122	2118	345010747354099
1111	2131	345010748181479
1100	2148	345010748990031
1091	2166	345010749776185
1093	2181	345010750680267
1108	2184	345010751514128
1129	2176	345010752357166
1144	2156	345010753162420
1151	2137	345010753972111
1143	2121	345010754784109
1136	2111	345010755681960
1139	2115	345010756521125
1142	2127	345010757434509
1140	2140	345010758272775
1127	2155	345010759080695
1117	2165	345010759860228
1104	2172	345010760619432
1096	2166	345010761459021
1091	2147	345010762290984
1083	2129	345010763118232
1074	2130	345010763927164
1068	2140	345010764739295
1058	2167	345010765772649
1051	2185	345010766558515
1044	2199	345010767465835
1038	2202	345010768238592
1038	2196	345010769046638
1042	2178	345010769851070
1042	2156	345010770676216
1040	2141	345010771536268
1043	2140	345010772352120
1049	2153	345010773172069
1051	2170	345010773980918
1041	2189	345010774786390
1035	2202	345010775682122
1027	2207	345010776517706
1019	2195	345010777369248
1008	2176	345010778179194
1004	2156	345010778981376
1008	2145	345010779786020
1016	2145	345010780691592
1024	2154	345010781535975
1031	2172	345010782375017
1034	2189	345010783172543
1029	2198	345010783981542
1023	2199	345010784788741
1030	2191	345010785683372
1039	2170	345010786502286
1047	2150	345010787412442
1045	2138	345010788267527
1047	2135	345010789078358
1050	2148	345010789888942
1041	2167	345010790710263
1034	2192	345010791652507
1024	2209	345010792501962
1013	2216	345010793231735
1008	2208	345010794044624
1010	2188	345010794849097
1006	2168	345010795661869
1001	2159	345010796496377
994	2161	345010797361799
990	2170	345010798194405
984	2188	345010798999213
981	2205	345010799806455
993	2218	345010800687090
1002	2219	345010801526324
998	2214	345010802362743
990	2197	345010803159699
992	2173	345010803961064
994	2157	345010804765223
991	2148	345010805685188
977	2156	345010806519984
967	2177	345010807422072
961	2197	345010808322100
951	2214	345010809130515
943	2223	345010809856753
948	2219	345010810695266
954	2204	345010811528109
956	2181	345010812409682
960	2171	345010813275961
955	2174	345010814091096
946	2185	345010814899205
947	2205	345010815720185
950	2220	345010816546930
951	2230	345010817387524
950	2229	345010818216846
953	2221	345010819020728
957	2200	345010819825102
967	2179	345010820690147
981	2167	345010821641940
991	2168	345010822359173
988	2178	345010823160139
986	2199	345010823987294
978	2218	345010824727617
972	2233	345010825685148
978	2236	345010826517636
986	2228	345010827420930
991	2204	345010828221629
989	2187	345010829026857
982	2174	345010829833960
976	2173	345010830676261
970	2183	345010831510807
962	2202	345010832416116
959	2220	345010833106242
956	2232	345010833904824
951	2241	345010834660001
939	2236	345010835634913
935	2218	345010836481291
935	2195	345010837385135
926	2178	345010838213976
921	2178	345010838988336
923	2193	345010839796266
922	2214	345010840695522
925	2227	345010841354650
929	2235	345010842162737
938	2242	345010842990410
943	2243	345010843797808
942	2228	345010844602910
932	2206	345010845458536
923	2188	345010846315335
918	2180	345010847120980
917	2188	345010847965233
910	2205	345010848775040
911	2221	345010849486164
911	2232	345010850344296
905	2240	345010851136896
899	2235	345010851915284
891	2220	345010852713415
885	2198	345010853522267
882	2184	345010854358502
884	2177	345010855156824
892	2180	345010855994293
899	2192	345010856801007
905	2204	345010857638104
898	2215	345010858476194
890	2222	345010859305515
881	2220	345010859878247
875	2210	345010860705530
866	2187	345010861543789
859	2166	345010862397169
851	2151	345010863201874
851	2149	345010863989900
856	2161	345010864748155
856	2181	345010865678758
851	2197	345010866519625
841	2207	345010867446777
833	2209	345010868240460
829	2200	345010869043890
832	2177	345010869840595
839	2160	345010870688451
839	2153	345010871526260
839	2157	345010872363091
841	2165	345010873167052
850	2178	345010873973289
855	2191	345010874771316
853	2201	345010875684555
844	2202	345010876489172
844	2195	345010877511847
842	2174	345010878371743
839	2151	345010879180699
838	2135	345010880010500
842	2133	345010880744354
846	2143	345010881554884
851	2161	345010882387940
852	2181	345010883168335
855	2195	345010883975110
862	2200	345010884802125
871	2190	345010885687765
870	2165	345010886579339
863	2146	345010887479980
859	2138	345010888316054
864	2138	345010888997535
870	2148	345010889822429
885	2166	345010890701004
904	2187	345010891639565
909	2196	345010892497987
904	2194	345010893243126
900	2184	345010894051596
894	2164	345010894852831
893	2143	345010895732405
899	2136	345010896556150
914	2141	345010897373885
928	2156	345010898191489
944	2177	345010899003060
956	2198	345010899808113
958	2213	345010900739692
957	2219	345010901494498
961	2205	345010902345144
961	2181	345010903151006
958	2168	345010903956246
953	2163	345010904782391
941	2170	345010905700620
938	2185	345010906536325
938	2205	345010907441658
945	2219	345010908277837
954	2228	345010909083386
955	2227	345010909870373
953	2216	345010910719096
952	2192	345010911555139
953	2172	345010912385625
949	2160	345010913183504
941	2161	345010913993607
936	2171	345010914810886
928	2186	345010915674706
934	2202	345010916508751
952	2214	345010917435870
964	2218	345010918245323
974	2209	345010919047971
977	2188	345010919859258
969	2167	345010920487162
963	2157	345010921323013
954	2151	345010922148162
951	2158	345010922956689
962	2172	345010923764152
981	2188	345010924497688
997	2199	345010925494340
1024	2206	345010926344265
1039	2200	345010927159854
1033	2180	345010927973863
1023	2158	345010928627533
1018	2147	345010929476949
1026	2142	345010930307549
1029	2149	345010931131479
1034	2167	345010931930735
1043	2185	345010932737182
1050	2193	345010933677663
1050	2191	345010934483683
1044	2182	345010935324678
1041	2161	345010936155659
1040	2144	345010936913924
1032	2133	345010937726638
1025	2127	345010938561076
1017	2132	345010939416431
1008	2148	345010940225126
1001	2163	345010941054442
990	2175	345010941880497
982	2183	345010942691658
977	2179	345010943525605
971	2164	345010944382989
973	2141	345010945190269
976	2124	345010946018025
978	2118	345010946822287
980	2123	345010947629628
982	2140	345010948474755
982	2159	345010949375476
974	2176	345010950187830
965	2184	345010951017597
959	2184	345010951825971
948	2172	345010952637461
941	2149	345010953472642
932	2131	345010954324697
924	2122	345010955132948
918	2123	345010955748769
911	2134	345010956576563
905	2158	345010957483306
901	2177	345010958327809
907	2186	345010959129790
921	2189	345010959877988
943	2180	345010960690198
968	2164	345010961548583
984	2141	345010962384419
985	2122	345010963188724
975	2119	345010963989375
970	2133	345010964797768
974	2156	345010965706338
994	2178	345010966560773
1010	2190	345010967465335
1019	2196	345010968263220
1031	2187	345010969022778
1030	2165	345010969813295
1022	2145	345010970698105
1017	2137	345010971550479
1008	2137	345010972377012
997	2146	345010973180785
988	2166	345010973980750
983	2183	345010974787831
977	2195	345010975705660
967	2197	345010976501009
959	2188	345010977336864
952	2167	345010978151017
946	2147	345010978958553
946	2138	345010979763243
946	2137	345010980694708
950	2154	345010981531540
958	2173	345010982374601
955	2191	345010983174409
949	2201	345010983995854
940	2206	345010984802682
936	2197	345010985697532
932	2173	345010986532156
923	2159	345010987438048
916	2151	345010988245226
907	2152	345010989005513
900	2164	345010989839364
901	2184	345010990718474
908	2203	345010991651090
911	2213	345010992497920
908	2216	345010993256482
903	2208	345010994015473
904	2187	345010994827144
899	2166	345010995713027
890	2158	345010996569852
881	2159	345010997382354
881	2168	345010998199944
891	2186	345010999001759
916	2200	345010999807041
943	2210	345011000637638
949	2210	345011001500702
945	2199	345011002334907
941	2177	345011003145121
938	2156	345011003942288
937	2146	345011004747345
944	2142	345011005695529
963	2149	345011006548104
1001	2163	345011007458787
1039	2177	345011008346926
1081	2191	345011009181478
1096	2194	345011009879754
1088	2185	345011010707724
1089	2164	345011011538927
1095	2143	345011012373976
1116	2133	345011013181985
1135	2132	345011014005903
1157	2143	345011014814209
1177	2159	345011015708197
1187	2174	345011016540039
1196	2188	345011017379654
1197	2186	345011018187261
1195	2173	345011019006096
1184	2151	345011019815496
1186	2133	345011020711944
1204	2121	345011021570380
1240	2117	345011022379515
1270	2122	345011023187390
1277	2137	345011023986640
1269	2151	345011024746912
1254	2161	345011025693994
1249	2159	345011026504621
1237	2152	345011027394991
1228	2135	345011028201586
1220	2115	345011029000825
1207	2102	345011029807810
1193	2102	345011030706884
1199	2115	345011031563873
1202	2133	345011032401596
1197	2144	345011033187345
1187	2153	345011034017192
1187	2157	345011034827200
1186	2150	345011035716668
1182	2127	345011036551497
1173	2107	345011037458220
1159	2099	345011038348548
1146	2101	345011039013596
1141	2111	345011039820417
1143	2128	345011040713841
1140	2144	345011041372449
1151	2152	345011042175086
1162	2157	345011042981089
1167	2153	345011043803461
1159	2136	345011044610728
1146	2111	345011045573840
1139	2100	345011046449772
1143	2096	345011047259569
1147	2106	345011048072449
1157	2122	345011048898726
1163	2140	345011049660836
1167	2153	345011050502771
1174	2159	345011051372257
1167	2153	345011052180887
1162	2132	345011052990804
1161	2112	345011053657742
1169	2103	345011054493225
1177	2102	345011055328845
1183	2111	345011056150622
1186	2127	345011056960274
1176	2144	345011057654292
1169	2159	345011058507916
1169	2168	345011059352778
1163	2165	345011060162919
1152	2147	345011060988061
1144	2125	345011061799059
1141	2109	345011062605063
1139	2103	345011063434678
1137	2110	345011064047697
1132	2121	345011064860529
1121	2138	345011065705099
1112	2149	345011066538560
1109	2157	345011067444113
1111	2164	345011068171195
1121	2156	345011068979718
1134	2137	345011069786981
1146	2115	345011070717838
1151	2107	345011071553274
1141	2113	345011072387986
1134	2134	345011073147243
1131	2154	345011073971837
1138	2171	345011074780903
1157	2182	345011075717651
1170	2182	345011076546931
1182	2168	345011077459038
1198	2146	345011078263678
1210	2132	345011079068199
1210	2126	345011079875105
1201	2129	345011080675160
1191	2140	345011081512092
1186	2155	345011082346685
1187	2172	345011083114929
1192	2180	345011083924877
1191	2185	345011084731064
1188	2171	345011085665209
1183	2131	345011087236126
1177	2116	345011088052183
1164	2115	345011088882279
1153	2125	345011089688322
1141	2146	345011090649552
1129	2171	345011091410094
1126	2184	345011092216306
1115	2193	345011093024563
1106	2193	345011093846376
1097	2177	345011094651824
1093	2154	345011095296696
1087	2143	345011096136076
1077	2139	345011096943275
1070	2147	345011097779704
1066	2167	345011098581052
1076	2188	345011099415825
1088	2204	345011100218853
1103	2215	345011101069346
1127	2216	345011101900103
1156	2197	345011102710410
1164	2174	345011103539382
1155	2161	345011104434263
1140	2156	345011105247475
1127	2164	345011106095250
1118	2179	345011106902174
1107	2195	345011107718555
1096	2208	345011108570842
1088	2213	345011109387283
1082	2211	345011110178273
1079	2194	345011111025154
1080	2171	345011111832357
1080	2154	345011112638957
1075	2147	345011113466749
1072	2152	345011114056587
1074	2164	345011114869440
1077	2183	345011115698818
1081	2197	345011116537485
1079	2206	345011117448701
1084	2205	345011118169229
1094	2191	345011118975575
1093	2169	345011119781632
1084	2153	345011120720257
1078	2148	345011121562391
1079	2148	345011122400977
1092	2158	345011123222333
1115	2176	345011124029992
1144	2196	345011124821643
1160	2202	345011125718651
1176	2202	345011126546462
1180	2185	345011127452306
1169	2162	345011128255145
1167	2148	345011128915690
1172	2140	345011129721177
1181	2141	345011130671759
1196	2151	345011131508246
1207	2167	345011132339766
1218	2179	345011133138022
1229	2184	345011133934120
1235	2184	345011134683702
1233	2170	345011135655469
1221	2146	345011136494659
1210	2129	345011137421622
1207	2116	345011138245815
1213	2115	345011139045687
1214	2122	345011139855282
1212	2136	345011140723422
1211	2149	345011141584885
1205	2159	345011142422325
1194	2164	345011143183306
1183	2162	345011143992309
1194	2150	345011144801566
1216	2129	345011145664746
1220	2123	345011146489912
1218	2125	345011147393176
1210	2141	345011148197409
1207	2159	345011149010188
1205	2177	345011149821293
1214	2192	345011150769290
1221	2196	345011151547065
1222	2185	345011152384019
1214	2161	345011153115499
1203	2146	345011153923145
1190	2136	345011154732037
1191	2134	345011155681878
1198	2147	345011156522511
1190	2169	345011157608963
1180	2196	345011158484902
1183	2205	345011159322139
1189	2205	345011159915860
1201	2197	345011160761419
1221	2177	345011161591710
1230	2159	345011162400340
1222	2148	345011163202423
1211	2147	345011164018232
1199	2159	345011164828682
1193	2181	345011165724946
1208	2199	345011166562946
1240	2214	345011167544365
1276	2220	345011168174547
1286	2213	345011168975669
1292	2195	345011169662046
1284	2176	345011170292326
1281	2166	345011171115329
1279	2161	345011171924804
1273	2167	345011172727275
1259	2183	345011173561231
1247	2202	345011174399732
1234	2215	345011175219643
1220	2220	345011176050040
1212	2218	345011176800160
1213	2206	345011177641283
1206	2182	345011178478007
1202	2163	345011179309119
1195	2155	345011180112734
1183	2156	345011180937894
1177	2168	345011181748109
1163	2188	345011182588590
1152	2200	345011183425956
1153	2208	345011184233236
1154	2207	345011184934982
1159	2196	345011185763389
1165	2173	345011186587250
1165	2156	345011187465243
1155	2150	345011188273003
1158	2153	345011189061210
1179	2164	345011189883210
1212	2175	345011190718518
1250	2185	345011191632299
1278	2187	345011192460537
1304	2181	345011193147989
1306	2170	345011193923614
1295	2154	345011194695326
1286	2128	345011195620800
1283	2113	345011196430828
1281	2109	345011197222419
1281	2119	345011198022689
1279	2133	345011198800304
1276	2147	345011199411746
1277	2154	345011200189364
1275	2156	345011200968340
1273	2153	345011201763018
1272	2138	345011202555801
1263	2116	345011203363397
1252	2100	345011204167379
1241	2091	345011204974715
1233	2086	345011205671109
1222	2089	345011206507605
1208	2101	345011207414303
1197	2113	345011208228443
1184	2122	345011209056039
1175	2127	345011209868477
1177	2119	345011210742555
1181	2105	345011211580041
1180	2085	345011212451049
1171	2067	345011213264566
1160	2063	345011214037549
1151	2073	345011214846648
1157	2092	345011215743510
1159	2111	345011216575581
1148	2125	345011217413706
1137	2132	345011218192715
1126	2121	345011219014360
1116	2103	345011219820216
1120	2081	345011220726860
1127	2072	345011221584974
1127	2074	345011222400917
1119	2086	345011223212151
1109	2104	345011223999867
1106	2121	345011224677880
1111	2130	345011225514300
1119	2136	345011226394394
1116	2130	345011227202204
1115	2112	345011228015494
1127	2091	345011228690501
1137	2081	345011229526038
1143	2079	345011230365017
1142	2086	345011231208796
1134	2105	345011232016969
1127	2125	345011232804151
1127	2140	345011233628188
1129	2151	345011234464497
1135	2148	345011235262068
1134	2134	345011236119407
1122	2111	345011236930615
1115	2098	345011237661833
1110	2097	345011238492182
1103	2110	345011239332054
1099	2132	345011240134237
1095	2151	345011240981980
1095	2163	345011241792631
1086	2169	345011242598158
1081	2167	345011243440422
1073	2154	345011244245311
1065	2132	345011245053650
1059	2116	345011245892543
1059	2108	345011246697219
1056	2109	345011247438136
1050	2120	345011248257188
1056	2138	345011249063024
1067	2151	345011249851846
1077	2163	345011250737896
1071	2169	345011251566538
1063	2160	345011252383309
1073	2138	345011253192223
1088	2121	345011254002362
1097	2111	345011254809844
1111	2112	345011255693450
1110	2125	345011256539292
1103	2142	345011257372034
1094	2158	345011258183364
1085	2165	345011258991274
1079	2166	345011259802821
1065	2154	345011260803166
1057	2133	345011261610480
1046	2113	345011262420565
1039	2105	345011263243980
1032	2107	345011264053430
1033	2118	345011264861940
1026	2139	345011265661224
1022	2155	345011266500118
1018	2163	345011267409587
1007	2159	345011268195047
1001	2146	345011268970916
992	2124	345011269799308
981	2102	345011270737617
973	2092	345011271574016
962	2093	345011272311619
957	2105	345011273129550
951	2123	345011273917611
945	2138	345011274726237
936	2152	345011275696345
929	2159	345011276532948
920	2151	345011277436144
915	2128	345011278240895
918	2110	345011279049373
924	2099	345011279862879
925	2099	345011280696471
930	2115	345011281541365
926	2136	345011282422263
916	2155	345011283192072
907	2168	345011283964492
898	2172	345011284605084
893	2164	345011285575679
896	2141	345011286395703
909	2125	345011287172472
915	2114	345011287975542
915	2108	345011288754613
911	2118	345011289555954
905	2132	345011290358475
899	2149	345011291028356
899	2161	345011291802853
909	2169	345011292538181
921	2169	345011293140907
916	2164	345011293916299
918	2147	345011294692008
921	2127	345011295274512
921	2117	345011296072686
918	2113	345011296873641
910	2118	345011297711002
904	2135	345011298518496
899	2152	345011299344834
899	2169	345011300149860
900	2176	345011300974858
899	2172	345011301800589
898	2156	345011302607523
895	2133	345011303443278
891	2115	345011304262592
884	2110	345011305070802
880	2114	345011305918642
880	2130	345011306745198
883	2149	345011307661881
874	2164	345011308510833
866	2174	345011309354050
859	2174	345011310171292
859	2161	345011311001133
854	2139	345011311832188
856	2124	345011312641694
853	2119	345011313481872
849	2123	345011314071268
854	2132	345011314881379
861	2148	345011315746015
860	2164	345011316605779
860	2172	345011317514909
876	2176	345011318172453
887	2169	345011318992609
884	2155	345011319799975
881	2129	345011320567059
887	2117	345011321480365
888	2119	345011322291603
883	2137	345011323096539
879	2161	345011323897630
875	2180	345011324675423
869	2197	345011325599173
866	2203	345011326446227
858	2192	345011327221131
850	2172	345011328004334
842	2152	345011328553835
837	2144	345011329355562
828	2138	345011330127090
822	2142	345011330938333
819	2153	345011331747807
820	2170	345011332581115
811	2184	345011333371705
807	2192	345011334181328
807	2193	345011334823413
814	2186	345011335737982
817	2164	345011336560723
825	2144	345011337465723
833	2133	345011338295516
829	2132	345011339078642
824	2141	345011339890307
821	2159	345011340750597
825	2174	345011341587789
829	2184	345011342426257
831	2186	345011343185228
827	2176	345011343991707
827	2152	345011344801497
829	2136	345011345730406
829	2133	345011346572524
831	2139	345011347307110
825	2150	345011348143734
832	2163	345011348953101
840	2169	345011349762279
839	2176	345011350744628
834	2171	345011351560115
828	2157	345011352392904
822	2132	345011353153623
816	2115	345011353962610
813	2103	345011354771808
808	2102	345011355685075
803	2112	345011356521740
794	2128	345011357491074
790	2142	345011358359383
785	2149	345011359168109
779	2149	345011359825691
785	2137	345011360753553
792	2114	345011361591031
799	2097	345011362397007
808	2085	345011363225225
817	2083	345011364005103
843	2093	345011364812218
859	2111	345011365738769
853	2129	345011366546262
850	2141	345011367448005
855	2144	345011368194772
859	2134	345011369003318
869	2112	345011369809332
884	2091	345011370738629
879	2081	345011371574707
875	2081	345011372327638
868	2085	345011373037632
860	2093	345011373743695
854	2107	345011374429173
855	2120	345011375253581
850	2132	345011376082179
852	2138	345011376820505
858	2134	345011377668705
867	2114	345011378501368
869	2100	345011379303920
870	2093	345011380126941
866	2094	345011380943961
862	2108	345011381772890
859	2128	345011382604362
870	2144	345011383441372
880	2150	345011384248382
878	2151	345011385074773
873	2139	345011385901117
861	2117	345011386717431
861	2100	345011387608446
861	2099	345011388449369
858	2105	345011389097856
857	2119	345011389919700
853	2138	345011390745285
858	2154	345011391670397
860	2166	345011392548473
858	2169	345011393212608
854	2161	345011394022726
847	2142	345011394824994
842	2115	345011395751663
838	2101	345011396590797
838	2103	345011397348916
839	2114	345011398172820
841	2133	345011398982656
839	2154	345011399784165
836	2171	345011400615244
830	2173	345011401459359
825	2168	345011402280195
829	2149	345011403089404
825	2127	345011403895274
817	2116	345011404725330
810	2117	345011405685779
803	2130	345011406521668
794	2147	345011407438515
786	2163	345011408253866
783	2172	345011409065699
777	2175	345011409811931
779	2168	345011410748719
782	2151	345011411585561
776	2126	345011412447465
768	2115	345011413257340
765	2116	345011414062634
756	2129	345011414884664
751	2152	345011415751636
744	2176	345011416589495
735	2192	345011417419275
731	2194	345011418183898
726	2185	345011418994909
724	2164	345011419791904
722	2145	345011420745785
720	2138	345011421586140
715	2142	345011422313984
716	2151	345011423126205
714	2169	345011423934769
710	2185	345011424688768
711	2197	345011425528898
707	2204	345011426388469
702	2203	345011427210887
698	2190	345011428023939
694	2166	345011428835474
696	2151	345011429651191
692	2147	345011430494947
690	2155	345011431348339
690	2175	345011432151770
688	2196	345011432815867
689	2212	345011433624135
684	2222	345011434475000
680	2223	345011435202242
673	2210	345011436030914
670	2188	345011436830378
676	2167	345011437648657
675	2159	345011438489415
675	2161	345011439345682
687	2178	345011440151858
687	2199	345011440978042
679	2218	345011441798274
682	2226	345011442618891
699	2227	345011443456639
715	2219	345011444279935
726	2199	345011445086465
721	2178	345011445907632
715	2170	345011446716232
717	2171	345011447616884
708	2183	345011448508954
710	2203	345011449362666
718	2220	345011450165338
722	2228	345011450989019
716	2230	345011451578273
718	2225	345011452408525
737	2202	345011453211888
751	2181	345011454034874
747	2170	345011454839208
739	2167	345011455695214
745	2177	345011456545215
746	2193	345011457441146
747	2214	345011458070488
749	2226	345011458892263
746	2234	345011459697395
741	2229	345011460541067
737	2212	345011461392986
733	2189	345011461982721
736	2174	345011462787595
745	2167	345011463618230
748	2171	345011464455330
743	2189	345011465262398
742	2208	345011466099477
750	2223	345011466911520
750	2231	345011467725699
745	2229	345011468579710
739	2216	345011469392848
734	2191	345011470176454
730	2174	345011471010454
724	2166	345011471821080
720	2169	345011472597082
718	2185	345011473458540
725	2203	345011474267175
733	2219	345011475073214
733	2232	345011475894511
737	2235	345011476483492
737	2229	345011477279474
737	2214	345011478129964
733	2189	345011478936196
739	2176	345011479740664
751	2177	345011480679224
766	2188	345011481513389
778	2206	345011482344470
784	2224	345011483139125
781	2238	345011483943399
792	2243	345011484753077
798	2234	345011485725865
790	2214	345011486564561
788	2194	345011487459854
788	2186	345011488295573
787	2188	345011488961661
792	2197	345011489648525
797	2214	345011490485873
797	2235	345011491085396
795	2244	345011491895558
789	2253	345011492721139
784	2255	345011493666124
781	2241	345011494503984
775	2218	345011495207783
774	2203	345011496036603
765	2197	345011496841926
758	2205	345011497648010
752	2220	345011498484779
746	2241	345011499286367
744	2255	345011500106192
744	2263	345011500930889
742	2260	345011501744411
748	2246	345011502599610
753	2223	345011503441851
761	2206	345011504175425
764	2203	345011504965574
759	2207	345011505710425
754	2220	345011506545629
760	2238	345011507461945
765	2259	345011508273432
766	2272	345011509083471
780	2275	345011509812486
785	2264	345011510752327
786	2241	345011511589206
782	2222	345011512429690
787	2211	345011513237541
794	2211	345011513936068
811	2221	345011514762327
826	2242	345011515722825
831	2259	345011516529737
825	2273	345011517452216
820	2282	345011518218678
817	2277	345011519024087
824	2259	345011519831468
832	2232	345011520753954
831	2221	345011521594943
827	2219	345011522308219
824	2229	345011523115392
824	2248	345011523924066
827	2271	345011524725646
822	2289	345011525568390
820	2297	345011526430559
813	2290	345011527251529
808	2274	345011528069137
802	2252	345011528810781
802	2240	345011529643188
804	2240	345011530642346
817	2250	345011531491754
827	2266	345011532269842
838	2280	345011533078949
845	2290	345011533887824
843	2298	345011534713946
838	2294	345011535551493
828	2275	345011536406369
823	2251	345011536979394
820	2241	345011537651150
813	2237	345011538492893
813	2241	345011539319040
817	2255	345011540126271
820	2276	345011540954596
824	2295	345011541784643
840	2307	345011542622200
857	2307	345011543465543
860	2286	345011544300670
866	2265	345011545105966
866	2252	345011545905170
860	2249	345011546708732
860	2260	345011547605804
870	2278	345011548444776
879	2299	345011549267747
898	2310	345011550097264
917	2312	345011550916182
927	2308	345011551714164
932	2293	345011552522593
927	2268	345011553333589
919	2248	345011554168643
911	2237	345011554969598
903	2244	345011555689730
897	2257	345011556536484
901	2277	345011557451921
908	2298	345011558267259
902	2302	345011559093618
902	2300	345011559849459
894	2289	345011560775515
893	2267	345011561537288
902	2246	345011562367186
925	2230	345011563173788
933	2222	345011563945586
936	2227	345011564744432
950	2244	345011565698932
955	2267	345011566534296
953	2290	345011567437195
946	2311	345011568204864
940	2318	345011569025487
932	2317	345011569649176
928	2306	345011570499413
917	2283	345011571370361
912	2279	345011572156491
905	2296	345011572963087
898	2326	345011573782485
900	2367	345011574476571
898	2402	345011575275624
896	2427	345011576121014
889	2420	345011576929971
880	2398	345011577742543
873	2377	345011578571638
866	2353	345011579403426
866	2344	345011580209671
867	2349	345011581049254
867	2365	345011581855945
861	2380	345011582662480
862	2398	345011583508895
860	2405	345011584312673
856	2397	345011585086526
851	2379	345011585935506
843	2361	345011586747546
839	2333	345011587643232
833	2314	345011588478599
824	2309	345011589285097
816	2318	345011590104505
813	2331	345011590950564
810	2340	345011591765194
811	2343	345011592604193
810	2340	345011593223799
805	2333	345011594030618
799	2316	345011594845691
794	2289	345011595773251
791	2272	345011596610142
789	2272	345011597333516
784	2280	345011598173084
782	2295	345011598983346
780	2308	345011599793196
772	2326	345011600774576
766	2334	345011601443587
767	2332	345011602245057
767	2315	345011603045297
763	2292	345011603848567
756	2282	345011604655018
758	2285	345011605699256
770	2299	345011606540665
781	2318	345011607451211
786	2338	345011608263692
786	2349	345011609066207
788	2352	345011609819041
784	2338	345011610770456
775	2314	345011611607668
773	2300	345011612407544
775	2292	345011613235992
775	2293	345011613944062
780	2299	345011614751316
792	2314	345011615708489
804	2330	345011616527819
817	2343	345011617367165
821	2351	345011618198841
824	2340	345011619009572
820	2317	345011619818000
815	2292	345011620767288
817	2280	345011621609096
832	2286	345011622317786
846	2301	345011623137382
865	2322	345011623946577
883	2343	345011624687775
883	2358	345011625663254
873	2361	345011626443066
871	2351	345011627260892
869	2327	345011628067540
864	2306	345011628872715
860	2293	345011629649664
853	2291	345011630477984
845	2299	345011631273037
837	2317	345011632050073
832	2331	345011632670390
837	2345	345011633475122
839	2351	345011634246326
838	2349	345011635039844
835	2334	345011635839185
829	2309	345011636675795
818	2289	345011637551901
811	2277	345011638357439
810	2276	345011638918251
809	2285	345011639706598
808	2299	345011640523061
809	2313	345011641285188
805	2326	345011642090307
804	2329	345011642870367
796	2325	345011643619894
789	2307	345011644422777
781	2286	345011645203930
777	2275	345011646033932
774	2269	345011646863376
774	2273	345011647696456
782	2291	345011648531561
780	2313	345011649294410
780	2326	345011650110749
779	2328	345011650943122
774	2318	345011651769285
772	2294	345011652601287
765	2275	345011653441297
761	2262	345011654267934
757	2255	345011655501504
759	2259	345011656370056
764	2269	345011657199080
773	2277	345011658010204
776	2290	345011658815006
781	2297	345011659640009
778	2291	345011660479914
770	2271	345011661283189
764	2246	345011661950163
758	2229	345011662757174
751	2222	345011663582399
748	2226	345011664461375
751	2239	345011665281817
747	2254	345011666074735
748	2266	345011666901955
746	2271	345011667722870
739	2272	345011668558460
731	2260	345011669409833
729	2236	345011670202212
724	2217	345011671025180
725	2202	345011671797966
732	2198	345011672537931
735	2209	345011673334745
738	2226	345011674130892
742	2247	345011674896318
741	2265	345011675751963
741	2271	345011676434552
734	2267	345011677211070
728	2253	345011677994003
724	2233	345011678572522
719	2227	345011679371685
713	2229	345011680108502
709	2236	345011680697794
711	2248	345011681510095
713	2275	345011682311526
715	2303	345011683132408
720	2321	345011683939162
721	2330	345011684746073
718	2315	345011685723060
712	2298	345011686560999
706	2296	345011687454360
701	2299	345011688292441
708	2302	345011688971300
706	2309	345011689773296
708	2328	345011690741427
713	2347	345011691460936
715	2353	345011692269680
721	2349	345011693078830
716	2331	345011693884830
709	2306	345011694700623
703	2282	345011695642223
699	2273	345011696490942
695	2274	345011697290784
699	2283	345011698136738
702	2297	345011698948242
702	2308	345011699724104
701	2317	345011700582735
697	2320	345011701443146
694	2314	345011702233542
692	2294	345011703040902
687	2276	345011703852713
682	2268	345011704668173
681	2273	345011705531498
680	2290	345011706387524
678	2307	345011707197254
679	2324	345011708009098
675	2336	345011708819491
677	2341	345011709649175
671	2322	345011710667909
672	2296	345011711522530
674	2279	345011712331616
664	2267	345011713162878
659	2265	345011713957047
660	2279	345011714766204
660	2304	345011715724903
658	2323	345011716549332
655	2334	345011717552243
648	2330	345011718476664
643	2315	345011719288553
637	2293	345011720094914
631	2275	345011720856825
626	2276	345011721665461
627	2294	345011722331535
625	2303	345011723165875
624	2313	345011723978630
623	2325	345011724765457
626	2337	345011725724785
628	2343	345011726456474
627	2337	345011727267998
626	2316	345011728030207
628	2294	345011728811030
622	2279	345011729644936
616	2272	345011730478083
617	2275	345011731305488
619	2291	345011732112519
615	2306	345011732941051
612	2323	345011733749015
606	2335	345011734581378
601	2336	345011735408613
595	2317	345011736204718
592	2295	345011736834555
587	2283	345011737712659
583	2275	345011738552334
581	2277	345011739388752
580	2290	345011740221288
578	2305	345011741051171
572	2320	345011741867464
567	2329	345011742671600
563	2330	345011743507359
558	2317	345011744316244
556	2292	345011745146094
550	2270	345011745976754
544	2259	345011746791400
543	2261	345011747677108
536	2277	345011748516781
534	2294	345011749330963
529	2303	345011750154429
528	2311	345011750983271
527	2313	345011751789031
525	2297	345011752642378
519	2273	345011753477297
515	2256	345011754126908
512	2250	345011754931165
514	2250	345011755597000
514	2258	345011756431974
519	2276	345011757255721
525	2296	345011758072448
524	2315	345011758881381
522	2320	345011759704287
515	2308	345011760540132
510	2288	345011761439086
505	2261	345011762077934
504	2248	345011762893928
500	2242	345011763709067
500	2251	345011764540333
499	2268	345011765353924
496	2291	345011766084711
497	2306	345011766907012
495	2320	345011767718472
489	2322	345011768544051
483	2309	345011769379687
483	2286	345011770126873
486	2272	345011770950678
496	2270	345011771759737
507	2282	345011772594929
506	2305	345011773547213
510	2336	345011774336442
508	2355	345011775140962
508	2364	345011775966186
507	2362	345011776766050
499	2342	345011777648741
499	2320	345011778501454
492	2303	345011779324006
487	2290	345011780129599
483	2290	345011780956034
478	2302	345011781753760
475	2315	345011782587336
474	2322	345011783419085
471	2333	345011784217906
468	2335	345011784838390
465	2331	345011785649167
460	2321	345011786509630
459	2302	345011787286901
455	2283	345011788100310
452	2286	345011788901287
448	2305	345011789705924
442	2327	345011790542632
441	2343	345011791490330
436	2354	345011792309889
435	2361	345011793088834
431	2353	345011793916773
426	2335	345011794731378
423	2311	345011795570079
417	2289	345011796449412
415	2281	345011797260874
413	2293	345011798089860
411	2316	345011798899518
409	2338	345011799707932
408	2348	345011800549180
408	2347	345011801394258
402	2334	345011802128431
399	2316	345011802936303
394	2292	345011803603914
391	2281	345011804438045
387	2274	345011805249589
385	2275	345011806104141
383	2288	345011806859279
386	2302	345011807719229
385	2315	345011808569163
386	2321	345011809389021
392	2315	345011810082928
396	2304	345011810926980
398	2280	345011811708704
397	2256	345011812512911
393	2240	345011813321967
389	2239	345011813968711
387	2251	345011814771244
381	2278	345011815752908
377	2306	345011816561931
375	2323	345011817469804
371	2328	345011818102102
368	2319	345011818956916
364	2296	345011819774063
363	2277	345011820766211
363	2269	345011821612495
367	2272	345011822343215
369	2284	345011823158457
376	2312	345011823995936
385	2340	345011824778248
396	2357	345011825651339
402	2352	345011826465008
399	2337	345011827259468
395	2317	345011828075048
393	2291	345011828888635
390	2275	345011829789367
385	2272	345011830592100
391	2276	345011831482997
393	2293	345011832295127
396	2307	345011832964921
407	2314	345011833781281
416	2321	345011834623563
419	2317	345011835482454
420	2298	345011836310652
433	2276	345011837310244
439	2251	345011838144802
442	2242	345011838956105
453	2233	345011839767044
467	2235	345011840600884
482	2248	345011841339558
500	2264	345011842150352
526	2281	345011842982191
538	2284	345011843795966
539	2281	345011844634321
533	2278	345011845453197
527	2262	345011846285864
521	2265	345011847097696
518	2283	345011847947928
518	2304	345011848759749
520	2324	345011849600477
530	2338	345011850451199
539	2346	345011851280494
545	2339	345011852086492
547	2320	345011852913863
541	2296	345011853599120
538	2285	345011854428784
540	2282	345011855235716
543	2286	345011856057717
545	2301	345011856865725
549	2318	345011857650656
554	2329	345011858542499
565	2338	345011859361012
574	2334	345011860167890
574	2313	345011860999065
570	2291	345011861809685
563	2277	345011862658640
558	2267	345011863496890
553	2270	345011864301641
552	2288	345011865128582
553	2312	345011865954698
551	2327	345011866766705
549	2333	345011867656012
547	2328	345011868491288
544	2306	345011869298479
541	2283	345011870132588
542	2272	345011870949523
549	2266	345011871757872
553	2264	345011872595906
556	2276	345011873395548
562	2294	345011874124213
565	2310	345011874942545
560	2317	345011875818269
555	2312	345011876474654
551	2302	345011877309066
544	2281	345011878128600
543	2259	345011878931408
544	2243	345011879746392
545	2238	345011880588835
550	2250	345011881442152
550	2272	345011882136943
552	2285	345011882724951
557	2294	345011883564800
557	2301	345011884391995
554	2297	345011885202745
548	2278	345011886049094
547	2254	345011886849820
552	2240	345011887733620
563	2234	345011888572127
571	2238	345011889222231
580	2249	345011890028480
592	2262	345011890854639
594	2278	345011891763176
592	2286	345011892584867
589	2284	345011893392420
582	2271	345011894195866
577	2248	345011894994486
575	2224	345011895849333
574	2208	345011896678735
570	2206	345011897609039
578	2226	345011898456698
584	2255	345011899255941
583	2276	345011900062233
577	2285	345011900891135
574	2285	345011901501718
572	2273	345011902316223
567	2250	345011903127170
560	2233	345011903933148
555	2225	345011904746375
552	2225	345011905589125
555	2237	345011906467056
566	2257	345011907275166
575	2268	345011908097067
579	2278	345011908930137
584	2279	345011909728565
587	2267	345011910569421
591	2243	345011911439284
596	2229	345011912227119
599	2220	345011913039288
596	2216	345011913870561
599	2225	345011914684840
606	2246	345011915525572
610	2271	345011916343375
615	2285	345011917148505
614	2284	345011917961835
609	2274	345011918788078
601	2255	345011919622456
598	2232	345011920229741
596	2220	345011921078058
593	2223	345011921885022
589	2235	345011922668075
586	2256	345011923548534
582	2283	345011924350946
578	2315	345011925171970
573	2330	345011926020470
567	2322	345011926831109
562	2299	345011927717970
555	2277	345011928487959
549	2261	345011929301013
543	2251	345011930113136
541	2252	345011930952084
541	2264	345011931769146
537	2282	345011932601832
533	2302	345011933448061
531	2314	345011934253020
525	2314	345011935057932
520	2297	345011935900415
516	2272	345011936703697
515	2246	345011937608476
515	2230	345011938458239
526	2227	345011939264899
541	2236	345011940071136
556	2248	345011940916581
561	2257	345011941802398
565	2266	345011942642164
569	2276	345011943477848
565	2276	345011944293226
561	2257	345011945106780
561	2234	345011945952481
560	2225	345011946764958
558	2232	345011947633132
563	2247	345011948496007
568	2264	345011949310023
570	2279	345011950106861
569	2289	345011950928950
568	2290	345011951739544
562	2275	345011952566173
559	2252	345011953423190
554	2233	345011954235217
553	2227	345011955039808
565	2229	345011955869430
586	2245	345011956685460
602	2268	345011957595278
607	2288	345011958453960
611	2296	345011959256415
612	2291	345011960080603
609	2276	345011960926895
607	2255	345011961739469
602	2240	345011962571638
599	2237	345011963368029
602	2246	345011964011205
612	2257	345011964822589
619	2279	345011965808124
617	2296	345011966653938
615	2306	345011967564837
609	2302	345011968377351
602	2284	345011969176729
602	2259	345011969988985
602	2242	345011970835313
599	2232	345011971700273
599	2238	345011972542250
606	2259	345011973333633
615	2283	345011974140067
620	2300	345011974917689
623	2313	345011975824369
623	2319	345011976484630
621	2317	345011977284540
619	2300	345011978098887
618	2279	345011978903289
611	2276	345011979707082
610	2289	345011980564411
611	2313	345011981418956
614	2340	345011982226572
612	2361	345011983024751
609	2374	345011983827702
605	2375	345011984650712
598	2363	345011985503588
593	2339	345011986328119
588	2319	345011987135637
583	2309	345011987970713
590	2310	345011988781994
601	2323	345011989618703
613	2344	345011990453699
616	2360	345011991276464
609	2372	345011992088362
602	2378	345011992919778
597	2375	345011993729176
594	2358	345011994567073
592	2334	345011995250415
587	2320	345011996079133
580	2318	345011996888472
577	2329	345011997895207
575	2343	345011998711658
569	2356	345011999374242
566	2362	345012000199109
573	2368	345012001027380
584	2369	345012001838026
589	2353	345012002682815
584	2328	345012003499725
580	2311	345012004303825
577	2304	345012005103379
572	2310	345012005925755
570	2327	345012006734325
575	2352	345012007660347
579	2369	345012008503091
579	2377	345012009311778
575	2372	345012010110501
571	2352	345012010943498
567	2331	345012011744237
564	2315	345012012591041
562	2310	345012013475294
559	2317	345012014291028
562	2333	345012015121511
568	2350	345012015951259
571	2362	345012016764565
572	2367	345012017659020
573	2360	345012018476385
567	2338	345012019285031
562	2321	345012020093615
557	2310	345012020921658
554	2301	345012021649644
551	2303	345012022513618
550	2315	345012023326434
552	2328	345012024138296
554	2340	345012024969207
552	2348	345012025828164
551	2349	345012026489354
551	2343	345012027311027
547	2322	345012028127379
545	2306	345012028932807
541	2297	345012029652771
539	2298	345012030493980
535	2309	345012031319978
534	2323	345012032122885
531	2336	345012032758057
529	2343	345012033590392
524	2350	345012034439776
518	2349	345012035242342
519	2336	345012036065612
515	2313	345012036857184
510	2300	345012037740748
505	2295	345012038572892
499	2304	345012039422546
495	2322	345012040227601
496	2344	345012041004915
495	2360	345012041649190
494	2365	345012042488667
489	2362	345012043130028
486	2352	345012043960765
482	2328	345012044773507
478	2304	345012045614319
472	2295	345012046466899
468	2301	345012047253802
469	2317	345012048068225
471	2338	345012048899745
474	2355	345012049648665
477	2368	345012050491184
481	2375	345012051314753
481	2370	345012052126383
478	2349	345012052939845
474	2324	345012053815448
471	2315	345012054659677
469	2329	345012055510989
465	2357	345012056354172
471	2381	345012057163716
471	2396	345012057983788
471	2406	345012058814054
472	2404	345012059697651
469	2387	345012060537765
465	2361	345012061362052
461	2341	345012062177314
459	2327	345012062987384
458	2324	345012063819830
463	2327	345012064654348
466	2339	345012065497330
463	2357	345012066306962
463	2373	345012067117002
459	2385	345012067930574
460	2382	345012068758839
459	2365	345012069598902
455	2342	345012070243782
451	2333	345012071087955
447	2330	345012071895452
446	2340	345012072686270
447	2357	345012073527329
448	2377	345012074345059
443	2394	345012075151212
442	2407	345012075990101
441	2406	345012076800157
437	2386	345012077694801
437	2360	345012078507343
433	2340	345012079314171
429	2333	345012080121199
428	2337	345012080877732
439	2351	345012081694459
451	2372	345012082374890
464	2391	345012083179422
475	2405	345012083992172
474	2409	345012084760434
469	2398	345012085615198
465	2373	345012086520784
458	2353	345012087315130
456	2344	345012088147695
467	2344	345012088959885
493	2359	345012089767414
515	2385	345012090597979
530	2406	345012091531134
541	2410	345012092350461
544	2402	345012093124409
542	2383	345012093914197
539	2360	345012094722747
544	2338	345012095558223
553	2323	345012096386441
563	2318	345012097199074
578	2326	345012098046743
591	2337	345012098857589
601	2351	345012099688055
604	2363	345012100516901
601	2370	345012101346866
595	2362	345012102156066
591	2343	345012102956299
583	2319	345012103760341
577	2307	345012104595459
573	2306	345012105610225
567	2320	345012106465391
566	2338	345012107270346
569	2357	345012108095425
572	2371	345012108910616
573	2374	345012109773062
578	2362	345012110634384
573	2338	345012111490667
569	2317	345012112294876
561	2307	345012113123789
558	2312	345012113852132
553	2327	345012114687950
549	2351	345012115521001
542	2374	345012116345563
539	2388	345012117154713
538	2384	345012117987702
538	2365	345012118763739
533	2340	345012119591931
529	2323	345012120389194
528	2313	345012121216778
529	2311	345012122005075
532	2318	345012122825846
533	2333	345012123659571
533	2350	345012124377184
531	2361	345012125208935
527	2368	345012126037130
522	2367	345012126827241
516	2347	345012127716881
510	2323	345012128528224
507	2313	345012129340175
508	2314	345012130170207
518	2322	345012130994675
532	2339	345012131807153
538	2358	345012132642273
541	2370	345012133481057
535	2375	345012134291897
529	2369	345012135120567
533	2345	345012135945643
535	2325	345012136766412
530	2313	345012137758754
529	2314	345012138597675
526	2322	345012139433781
525	2337	345012140255513
528	2349	345012141019359
527	2362	345012141831635
522	2366	345012142658049
516	2364	345012143494921
516	2347	345012144298165
517	2323	345012145125905
519	2308	345012145949826
524	2298	345012146760613
528	2298	345012147655790
527	2317	345012148495094
524	2343	345012149309347
517	2363	345012150129601
515	2369	345012150955980
515	2361	345012151774211
518	2343	345012152628655
525	2320	345012153475607
531	2303	345012154096982
537	2300	345012154901030
544	2309	345012155642499
553	2321	345012156482687
565	2341	345012157319569
568	2360	345012158143310
567	2371	345012158959504
562	2369	345012159765476
556	2347	345012160739391
557	2322	345012161581590
564	2303	345012162434418
573	2293	345012163256955
578	2292	345012163897714
580	2299	345012164781916
579	2307	345012165739555
585	2323	345012166600281
595	2339	345012167566770
600	2345	345012168124773
602	2339	345012168936683
599	2319	345012169745861
596	2297	345012170579140
589	2288	345012171449177
590	2294	345012172271014
599	2319	345012173083274
602	2347	345012173849149
602	2369	345012174680558
602	2380	345012175435596
606	2381	345012176227612
615	2370	345012176987522
635	2351	345012177794873
648	2331	345012178513183
651	2322	345012179335666
646	2322	345012180141721
642	2330	345012180973663
639	2346	345012181781536
638	2365	345012182624095
640	2381	345012183510066
647	2389	345012184340907
645	2389	345012184999592
638	2377	345012185838495
632	2353	345012186670467
627	2335	345012187574756
632	2323	345012188380767
641	2328	345012189205549
646	2344	345012190014732
654	2372	345012190840614
687	2401	345012191552688
719	2411	345012192354075
726	2414	345012193132024
734	2400	345012193972329
739	2378	345012194784159
743	2356	345012195597124
746	2350	345012196452130
747	2355	345012197264928
750	2372	345012198096603
751	2397	345012198927921
750	2421	345012199736143
750	2435	345012200577090
751	2435	345012201376284
753	2422	345012202125807
762	2400	345012202934354
764	2389	345012203731391
758	2387	345012204537564
751	2387	345012205321325
743	2394	345012206132169
738	2410	345012206913131
736	2427	345012207623538
732	2436	345012208438975
725	2435	345012209213031
719	2421	345012209992377
715	2403	345012210814387
712	2380	345012211619899
706	2362	345012212418097
699	2361	345012213205901
693	2370	345012213859855
696	2381	345012214659552
699	2392	345012215483557
700	2411	345012216314559
697	2427	345012217120975
689	2432	345012217926974
683	2420	345012218732906
678	2395	345012219570060
678	2373	345012220388579
678	2359	345012221227702
678	2363	345012222058032
681	2378	345012222885902
684	2396	345012223713441
690	2418	345012224385101
694	2434	345012225218332
699	2443	345012226049260
702	2447	345012226832999
706	2428	345012227734368
705	2409	345012228513514
699	2399	345012229331817
699	2399	345012230163536
706	2412	345012230989737
717	2431	345012231802435
730	2449	345012232633682
743	2463	345012233471128
758	2470	345012234284214
764	2465	345012235113975
764	2446	345012235942864
758	2424	345012236752766
750	2415	345012237649067
745	2418	345012238483637
744	2426	345012239286324
745	2442	345012240112123
747	2455	345012240939032
752	2464	345012241649345
755	2463	345012242475966
761	2453	345012243140670
763	2434	345012243941967
761	2408	345012244771395
752	2385	345012245737903
745	2374	345012246578255
738	2375	345012247261127
732	2384	345012248073744
726	2401	345012248890282
732	2417	345012249648716
733	2429	345012250650684
731	2423	345012251388009
725	2403	345012252207758
717	2379	345012253013867
712	2367	345012253817642
711	2362	345012254666960
718	2366	345012255503726
722	2378	345012256329949
724	2397	345012257130236
725	2409	345012257944592
721	2416	345012258754795
718	2414	345012259605677
712	2401	345012260406854
706	2377	345012261229317
701	2362	345012261888066
703	2358	345012262721727
707	2365	345012263563552
714	2379	345012264379530
723	2397	345012265191217
729	2415	345012266013345
732	2420	345012266840207
726	2412	345012267737420
717	2397	345012268577974
712	2377	345012269409997
705	2358	345012270141338
701	2349	345012270969903
701	2347	345012271777905
702	2362	345012272610550
699	2388	345012273449239
692	2409	345012274279928
690	2421	345012275091534
687	2424	345012275921461
684	2413	345012276729151
683	2385	345012277747149
678	2362	345012278516065
672	2353	345012279333524
667	2353	345012280141153
664	2363	345012280884805
663	2382	345012281715482
662	2405	345012282554937
663	2421	345012283361275
661	2430	345012284163994
657	2428	345012284751725
658	2416	345012285720828
656	2391	345012286580915
651	2375	345012287379367
648	2364	345012288190872
641	2372	345012288894495
636	2390	345012289712466
630	2413	345012290570278
631	2432	345012291526165
631	2450	345012292331847
630	2463	345012293137354
625	2461	345012293934511
618	2441	345012294740817
616	2417	345012295575578
623	2408	345012296448298
635	2417	345012297254633
644	2439	345012298073195
648	2462	345012298881000
646	2482	345012299711397
640	2493	345012300549298
632	2490	345012301384287
627	2477	345012302019303
626	2457	345012302810356
630	2437	345012303517936
634	2428	345012304332505
637	2430	345012305144091
645	2438	345012305997138
654	2456	345012306809574
667	2475	345012307660200
667	2486	345012308524276
664	2490	345012309340244
656	2482	345012310161010
652	2457	345012311010582
655	2437	345012311823091
661	2428	345012312659416
666	2431	345012313419032
671	2444	345012314202600
676	2467	345012315013531
677	2482	345012315862514
675	2492	345012316695109
668	2503	345012317607844
668	2495	345012318445158
665	2469	345012319251669
663	2446	345012320059756
661	2438	345012320820687
658	2443	345012321658753
656	2461	345012322273007
655	2483	345012323096777
656	2513	345012323915399
656	2535	345012324720414
648	2544	345012325553392
642	2538	345012326379289
637	2523	345012327182578
634	2496	345012328017220
637	2482	345012328770837
647	2481	345012329606310
656	2490	345012330405184
667	2513	345012331229688
676	2545	345012332047849
682	2567	345012332877113
693	2572	345012333827222
695	2563	345012334671591
691	2543	345012335529998
697	2519	345012336361115
712	2504	345012337013131
728	2498	345012338002118
745	2505	345012338812475
765	2524	345012339648857
779	2547	345012340480398
785	2560	345012341310760
785	2565	345012342125096
785	2568	345012342954078
782	2557	345012343766523
774	2532	345012344603929
768	2517	345012345385770
766	2509	345012346123493
767	2508	345012346928928
775	2523	345012347867313
789	2548	345012348703642
799	2570	345012349546995
808	2583	345012350364958
808	2587	345012351196088
801	2574	345012352001359
795	2548	345012352826038
787	2528	345012353550592
783	2520	345012354142920
777	2520	345012354941385
774	2532	345012355862782
776	2554	345012356699606
780	2580	345012357632184
787	2596	345012358473798
800	2607	345012359275594
816	2599	345012360085218
834	2576	345012360915998
849	2554	345012361650221
862	2549	345012362487967
871	2553	345012363309097
872	2565	345012363915432
868	2581	345012364746593
858	2610	345012365740712
849	2624	345012366583659
842	2623	345012367381476
834	2615	345012368065377
828	2600	345012368863905
818	2571	345012369649930
815	2556	345012370485785
809	2543	345012371314241
798	2546	345012372116476
791	2562	345012372923375
794	2587	345012373738403
795	2611	345012374595273
795	2626	345012375408072
798	2633	345012376235892
802	2624	345012376873327
806	2606	345012377636613
811	2587	345012378478290
823	2576	345012379305619
833	2577	345012380108479
843	2589	345012380936585
850	2613	345012381744395
856	2637	345012382584349
855	2652	345012383392907
850	2653	345012384223304
846	2644	345012385032339
842	2622	345012385649218
840	2600	345012386511283
831	2577	345012387322707
824	2563	345012388130712
822	2568	345012388926249
822	2582	345012389849351
821	2609	345012390816450
816	2640	345012391537186
811	2648	345012392346956
809	2651	345012393034859
809	2636	345012393861032
809	2608	345012394690469
808	2591	345012395526758
802	2585	345012396349646
792	2588	345012397154626
785	2604	345012397974084
779	2627	345012398800188
773	2649	345012399631506
764	2657	345012400480556
758	2655	345012401241771
755	2642	345012402056052
752	2619	345012402865682
748	2593	345012403543549
743	2583	345012404349499
740	2578	345012405161214
740	2583	345012405982164
737	2602	345012406795180
728	2623	345012407679198
718	2635	345012408595936
711	2641	345012409410514
708	2645	345012410211421
706	2628	345012411062003
708	2606	345012411797884
710	2597	345012412630652
710	2594	345012413453725
709	2607	345012414268907
706	2630	345012415079023
703	2649	345012415926523
698	2659	345012416740384
689	2658	345012417649232
690	2642	345012418506788
693	2615	345012419314289
696	2594	345012420124308
699	2577	345012420966811
690	2571	345012421781085
682	2583	345012422617800
681	2606	345012423474921
687	2625	345012424285890
685	2636	345012425094360
678	2640	345012425863527
676	2624	345012426705112
669	2594	345012427617152
661	2577	345012428475969
653	2565	345012429272087
646	2560	345012430084346
642	2563	345012430905725
639	2575	345012431731121
633	2583	345012432535403
626	2591	345012433360787
621	2591	345012434150435
619	2581	345012434783404
619	2568	345012435636513
621	2542	345012436492129
626	2525	345012437292019
629	2516	345012438121588
633	2521	345012438916682
634	2546	345012439730461
634	2567	345012440585870
630	2577	345012441290143
624	2578	345012442111595
619	2575	345012442919337
618	2556	345012443739980
618	2530	345012444578213
623	2508	345012445409074
634	2495	345012446250159
647	2497	345012447063338
658	2517	345012447869864
673	2542	345012448703408
683	2559	345012449548944
691	2564	345012450372629
695	2559	345012451206135
692	2540	345012452018713
685	2516	345012452848549
679	2495	345012453551859
674	2482	345012454360107
666	2479	345012455163978
661	2496	345012455986054
662	2527	345012456798414
668	2559	345012457692758
675	2572	345012458536999
689	2571	345012459343641
698	2554	345012460149209
699	2528	345012460973805
699	2514	345012461783946
695	2510	345012462632712
691	2513	345012463469733
685	2531	345012464247402
679	2553	345012465075128
674	2577	345012465901197
669	2593	345012466736484
667	2594	345012467638635
665	2577	345012468472725
670	2550	345012469276538
669	2536	345012470120879
663	2531	345012470952415
665	2532	345012471764543
667	2547	345012472602031
662	2573	345012473417022
657	2596	345012474207852
650	2609	345012475035983
644	2609	345012475867748
643	2594	345012476709072
654	2565	345012477639460
666	2542	345012478482456
679	2528	345012479272647
688	2523	345012480076833
693	2530	345012480812308
693	2547	345012481653746
689	2567	345012482511522
684	2579	345012483319596
676	2580	345012484129011
676	2569	345012484822969
680	2549	345012485658984
674	2523	345012486517316
670	2504	345012487337312
667	2496	345012488150020
670	2501	345012488946082
681	2515	345012489766917
689	2535	345012490602787
697	2549	345012491429325
700	2560	345012492264701
700	2560	345012493067126
700	2539	345012493877981
698	2512	345012494710638
692	2498	345012495554262
687	2504	345012496389291
682	2517	345012497223977
678	2537	345012498048406
672	2560	345012498853020
666	2573	345012499680353
665	2577	345012500514867
662	2566	345012501347068
655	2542	345012502184279
648	2521	345012502991873
640	2510	345012503587412
638	2503	345012504410460
638	2504	345012505225179
640	2514	345012506026297
642	2529	345012506852612
637	2543	345012507682556
633	2547	345012508523562
632	2543	345012509354756
630	2535	345012510165044
628	2512	345012511000987
628	2484	345012511809350
631	2465	345012512526924
629	2461	345012513311162
628	2469	345012513924585
631	2485	345012514740650
632	2506	345012515577350
628	2515	345012516394363
622	2514	345012517203595
615	2511	345012518017868
612	2498	345012518839455
612	2472	345012519671110
605	2457	345012520473540
599	2446	345012521326906
593	2444	345012522136729
588	2461	345012522944007
584	2483	345012523744016
591	2499	345012524585626
600	2508	345012525403495
607	2510	345012526251089
612	2500	345012527064729
614	2476	345012527873358
613	2457	345012528583650
614	2448	345012529394128
609	2448	345012530206811
602	2458	345012531022284
600	2478	345012531842516
596	2498	345012532677453
593	2512	345012533527326
596	2514	345012534339453
598	2501	345012535145718
596	2475	345012535995495
593	2455	345012536808828
589	2444	345012537675468
588	2445	345012538510153
582	2461	345012539317139
578	2482	345012540124609
577	2507	345012540969134
575	2519	345012541650197
576	2521	345012542483310
576	2514	345012543075162
571	2496	345012543880616
567	2470	345012544713852
566	2456	345012545572073
563	2451	345012546400316
559	2457	345012547197368
552	2481	345012548022210
548	2509	345012548829882
548	2524	345012549660465
542	2528	345012550511137
537	2522	345012551340034
531	2499	345012552149131
526	2474	345012552908021
528	2460	345012553746624
530	2457	345012554590580
528	2466	345012555421244
521	2477	345012556257634
517	2492	345012557073380
512	2507	345012557957044
507	2510	345012558782264
505	2507	345012559624384
504	2486	345012560483580
503	2458	345012561319530
502	2448	345012562132014
504	2450	345012562939410
503	2455	345012563751202
514	2462	345012564590629
526	2473	345012565397657
534	2478	345012566231212
543	2480	345012567042964
558	2478	345012567869362
570	2460	345012568703922
576	2434	345012569535372
571	2416	345012570179772
568	2407	345012571007586
569	2402	345012571813377
580	2417	345012572659468
598	2439	345012573627869
620	2461	345012574331824
629	2467	345012575157020
640	2466	345012575990434
649	2452	345012576677242
655	2431	345012577638696
655	2408	345012578460257
652	2402	345012579199317
645	2404	345012579997070
638	2409	345012580992631
632	2419	345012581804470
626	2432	345012582658293
625	2436	345012583488832
629	2437	345012584301844
637	2435	345012584950356
645	2423	345012585884469
641	2406	345012586721706
634	2387	345012587642670
627	2380	345012588475763
623	2389	345012589281205
621	2410	345012590108654
622	2441	345012590938919
625	2468	345012591916184
626	2483	345012592675288
628	2487	345012593504681
629	2466	345012594321198
628	2447	345012595152771
623	2447	345012595984621
616	2451	345012596796798
612	2473	345012597709718
605	2500	345012598576844
600	2521	345012599319267
601	2531	345012600075321
597	2532	345012600876844
594	2524	345012601717481
588	2501	345012602580732
583	2481	345012603387582
576	2469	345012604189076
574	2469	345012604999079
570	2478	345012605992291
564	2495	345012606690623
560	2514	345012607553474
555	2529	345012608332663
550	2528	345012609116842
549	2518	345012609943654
548	2489	345012610885046
542	2464	345012611727177
545	2446	345012612577208
548	2439	345012613385828
549	2451	345012614214884
548	2476	345012615044846
547	2502	345012615898640
547	2520	345012616730147
543	2535	345012617639500
539	2526	345012618460178
535	2501	345012619270963
535	2485	345012620102904
539	2481	345012620935289
545	2482	345012621640879
549	2496	345012622492168
555	2520	345012623310084
557	2546	345012624115777
556	2563	345012624876702
550	2571	345012625841464
544	2554	345012626682427
548	2527	345012627623688
557	2504	345012628444979
572	2489	345012629256724
584	2488	345012630082688
596	2496	345012630915723
602	2519	345012631757057
599	2539	345012632613543
595	2543	345012633423904
591	2546	345012634232028
586	2536	345012635036636
586	2510	345012635902726
590	2488	345012636689925
599	2480	345012637574502
613	2479	345012638386667
626	2485	345012638992452
630	2496	345012639816224
630	2512	345012640650697
628	2519	345012641441248
628	2524	345012642148749
625	2527	345012642954255
622	2520	345012643756972
618	2498	345012644607991
612	2489	345012645203864
613	2490	345012646030886
613	2501	345012646840060
616	2522	345012647739417
624	2544	345012648575031
628	2559	345012649365285
623	2562	345012650185926
620	2552	345012651023609
614	2536	345012651830690
608	2514	345012652663509
601	2502	345012653464937
597	2489	345012654287926
590	2485	345012655096262
583	2481	345012655922204
580	2493	345012656766088
576	2507	345012657677853
571	2523	345012658521976
567	2533	345012659326736
560	2534	345012660134935
554	2505	345012660965898
553	2482	345012661838741
569	2471	345012662678617
580	2462	345012663514673
587	2462	345012664316770
600	2491	345012665124330
616	2534	345012665953106
621	2554	345012666774637
614	2543	345012667676605
613	2525	345012668510430
619	2500	345012669339675
623	2484	345012670170172
623	2472	345012670996253
627	2473	345012671797989
635	2485	345012672629617
645	2508	345012673404715
651	2537	345012674231469
652	2550	345012675039142
653	2544	345012675903448
652	2528	345012676758183
644	2501	345012677706448
639	2489	345012678464391
639	2480	345012679289609
648	2486	345012680100874
660	2505	345012680848620
668	2536	345012681708968
668	2567	345012682538300
661	2581	345012683347973
655	2576	345012684153223
649	2563	345012684960687
647	2539	345012685888566
655	2525	345012686750729
665	2526	345012687656566
669	2540	345012688496704
667	2537	345012689230611
676	2554	345012690042398
692	2613	345012690910510
697	2639	345012691864696
697	2618	345012692712284
703	2590	345012693575075
718	2564	345012694405484
723	2547	345012695212321
716	2525	345012696038547
715	2521	345012696801629
726	2561	345012697707828
733	2589	345012698549963
733	2603	345012699352000
733	2630	345012700156461
726	2635	345012700979743
717	2628	345012701801271
715	2605	345012702620105
718	2607	345012703423651
721	2614	345012704245188
732	2620	345012705054610
737	2633	345012705911498
735	2644	345012706776679
735	2652	345012707688028
739	2655	345012708535223
744	2648	345012709362648
747	2630	345012710118845
742	2607	345012710862199
737	2588	345012711721835
729	2565	345012712556954
721	2546	345012713362371
713	2547	345012714196444
721	2598	345012715001984
742	2635	345012715911671
761	2649	345012716761739
784	2632	345012717669858
793	2629	345012718501285
790	2612	345012719295074
794	2591	345012720113431
792	2587	345012720946071
788	2584	345012721770255
793	2594	345012722608637
808	2624	345012723419117
822	2647	345012724252181
836	2654	345012725063266
851	2661	345012726010863
865	2675	345012726825635
877	2689	345012727729806
890	2671	345012728479055
897	2671	345012729242409
892	2688	345012730050311
891	2707	345012730915266
886	2760	345012731777857
879	2777	345012732617960
882	2783	345012733430759
873	2805	345012734258920
866	2815	345012735067542
858	2799	345012735899144
849	2781	345012736756279
840	2804	345012737634170
835	2822	345012738631157
828	2829	345012739498315
822	2821	345012740307479
814	2832	345012740973386
806	2854	345012741650380
803	2863	345012742463540
797	2864	345012743101507
792	2849	345012743931933
787	2826	345012744761020
789	2820	345012745604718
788	2814	345012746429928
784	2805	345012747228528
779	2810	345012748045056
775	2826	345012748869100
773	2830	345012749648116
777	2844	345012750453290
779	2854	345012751277600
777	2856	345012752084806
770	2842	345012752894642
761	2819	345012753747141
755	2817	345012754584652
755	2845	345012755390229
757	2904	345012756228720
759	2927	345012757038938
754	2923	345012757860239
747	2920	345012758716157
746	2902	345012759548356
737	2880	345012760352310
741	2855	345012761112365
748	2843	345012761855695
747	2829	345012762698410
744	2806	345012763553464
747	2825	345012764355755
757	2867	345012765178768
779	2899	345012766053635
784	2923	345012766853579
776	2941	345012767754271
774	2946	345012768588205
777	2921	345012769384213
787	2896	345012770104608
813	2872	345012770948328
844	2886	345012771797553
875	2900	345012772651545
888	2923	345012773512956
883	2943	345012774324756
888	2962	345012775136622
897	2980	345012775959952
893	3008	345012776773537
886	2983	345012777649362
886	2959	345012778452553
890	2956	345012779253724
899	2967	345012780058911
906	2971	345012780923078
912	2983	345012781872609
922	2990	345012782598246
932	3004	345012783417012
937	3015	345012784225290
930	3015	345012784969897
930	3016	345012785912560
928	2995	345012786754587
919	2998	345012787664027
911	2993	345012788469364
907	2994	345012789275245
921	3024	345012790100279
936	3045	345012790952892
947	3031	345012791882718
960	3026	345012792740967
969	3035	345012793577557
969	3015	345012794389267
961	2993	345012795101103
952	3005	345012795942323
947	3018	345012796787215
945	3012	345012797699504
943	3002	345012798574003
944	2988	345012799315138
948	2980	345012800094009
953	2985	345012800823916
953	2990	345012801635804
949	2976	345012802414268
939	2950	345012803214700
934	2930	345012803990164
935	2928	345012804763125
947	2941	345012805555680
962	2952	345012806359943
964	2946	345012807138637
960	2933	345012807934296
952	2928	345012808738383
948	2919	345012809650005
938	2904	345012810650227
934	2875	345012811441017
937	2862	345012812216123
943	2850	345012813017314
945	2838	345012813831651
945	2821	345012814665521
948	2796	345012815464916
947	2789	345012816293677
941	2804	345012817113144
931	2813	345012817951116
929	2805	345012818784490
929	2793	345012819617307
935	2779	345012820435963
942	2777	345012821274989
939	2761	345012822097725
932	2755	345012822923708
938	2769	345012823818982
937	2785	345012824601346
933	2798	345012825434167
926	2796	345012826265166
919	2769	345012827075519
913	2749	345012827875147
908	2731	345012828720306
901	2709	345012829558209
906	2695	345012830387748
922	2723	345012831218590
929	2763	345012832028538
928	2784	345012832612557
920	2791	345012833437450
914	2803	345012834239382
910	2817	345012835063545
908	2811	345012835915598
910	2785	345012836755241
906	2781	345012837788947
911	2809	345012838636907
909	2823	345012839412054
909	2846	345012840210388
932	2850	345012840953524
939	2861	345012841651977
938	2869	345012842429101
938	2862	345012843083483
938	2845	345012843863292
935	2815	345012844722245
930	2807	345012845542280
919	2786	345012846382304
911	2782	345012847184046
903	2790	345012848008302
898	2769	345012848819772
897	2772	345012849667437
893	2788	345012850675999
893	2791	345012851357760
892	2777	345012852182078
884	2758	345012852994644
876	2736	345012853804502
875	2715	345012854663658
876	2715	345012855475542
886	2730	345012856306727
884	2753	345012857064049
875	2787	345012857885540
867	2801	345012858726031
860	2815	345012859583043
851	2802	345012860384812
844	2781	345012861215758
843	2775	345012861839463
838	2765	345012862673229
830	2745	345012863475991
831	2765	345012864294501
829	2803	345012865102762
824	2831	345012865927420
817	2827	345012866779572
809	2805	345012867688179
800	2777	345012868524180
791	2753	345012869355285
791	2723	345012870113763
788	2696	345012870936587
789	2674	345012871765309
790	2675	345012872662006
783	2686	345012873469008
776	2699	345012874295642
770	2705	345012875101077
763	2710	345012875927296
758	2718	345012876760209
751	2714	345012877671685
743	2692	345012878481574
735	2684	345012879301268
727	2687	345012880107795
720	2690	345012880930770
711	2714	345012881649906
707	2731	345012882452684
706	2731	345012883256138
710	2723	345012884057691
709	2714	345012884742194
704	2711	345012885749077
695	2689	345012886629124
689	2667	345012887462219
689	2666	345012888280736
692	2681	345012888860898
698	2695	345012889651720
710	2711	345012890463908
718	2729	345012891314385
717	2729	345012892123839
715	2714	345012892937324
724	2695	345012893883052
738	2672	345012894726855
748	2644	345012895568209
752	2626	345012896423600
745	2629	345012897232692
737	2641	345012898055301
737	2658	345012898882035
743	2670	345012899721287
755	2687	345012900570576
771	2687	345012901366494
792	2673	345012902179457
816	2647	345012902986371
841	2633	345012903784912
862	2623	345012904613432
879	2621	345012905420329
893	2630	345012906264130
902	2649	345012907069598
900	2666	345012907881185
895	2675	345012908738117
889	2672	345012909570704
893	2653	345012910372491
913	2625	345012911191652
943	2599	345012911867965
970	2583	345012912699034
992	2576	345012913551896
1005	2588	345012914367704
1010	2616	345012915177215
1004	2633	345012915993186
995	2641	345012916808247
986	2634	345012917721113
977	2618	345012918583232
967	2588	345012919395029
961	2567	345012920121401
961	2554	345012920882694
966	2552	345012921730721
976	2558	345012922568264
986	2576	345012923399728
996	2598	345012924208084
1001	2613	345012925016432
1009	2617	345012925933348
1008	2606	345012926779229
998	2573	345012927725992
992	2550	345012928478522
990	2537	345012929283344
998	2527	345012930098893
1004	2535	345012930920949
1010	2557	345012931754314
1021	2581	345012932588513
1026	2601	345012933386486
1026	2610	345012934170489
1023	2610	345012934976266
1011	2586	345012935920810
1000	2558	345012936754249
990	2547	345012937660193
988	2551	345012938462687
988	2568	345012939267339
986	2593	345012940073329
975	2622	345012940923771
968	2646	345012941649713
959	2652	345012942469818
952	2646	345012943130344
952	2630	345012943940474
951	2601	345012944771858
947	2584	345012945635050
950	2577	345012946463480
954	2579	345012947142586
954	2588	345012947964079
949	2611	345012948799623
940	2631	345012949648802
933	2640	345012950472260
921	2641	345012951303125
916	2628	345012952115344
912	2602	345012952875133
906	2581	345012953483974
900	2571	345012954259181
891	2565	345012955088785
880	2571	345012955939445
872	2583	345012956773963
860	2599	345012957890155
855	2607	345012958753669
847	2605	345012959599455
842	2592	345012960424019
838	2569	345012961252192
832	2542	345012961857538
827	2523	345012962713436
820	2511	345012963550648
821	2514	345012964328016
822	2530	345012965133704
821	2547	345012965958972
822	2561	345012966778525
822	2569	345012967706863
828	2564	345012968530415
832	2542	345012969344382
830	2516	345012970123734
821	2499	345012970936939
816	2494	345012971771969
811	2500	345012972623933
809	2517	345012973433018
809	2535	345012974240657
803	2554	345012975060989
801	2569	345012975905370
796	2573	345012976621612
789	2560	345012977445780
786	2534	345012978257816
792	2517	345012979064064
800	2509	345012979864912
806	2514	345012980507566
806	2531	345012981335187
802	2555	345012982165378
792	2576	345012982967719
791	2586	345012983803965
788	2587	345012984686355
779	2576	345012985496845
773	2550	345012986324387
764	2528	345012987244033
760	2518	345012988056232
751	2517	345012988867709
747	2530	345012989717286
746	2549	345012990552216
742	2565	345012991379891
762	2572	345012992207888
782	2566	345012993005779
802	2553	345012993812879
810	2528	345012994641478
804	2503	345012995443302
796	2488	345012996269035
786	2477	345012997098310
778	2477	345012997927507
776	2491	345012998759358
779	2503	345012999605485
789	2512	345013000413765
807	2515	345013001249933
827	2505	345013002073576
848	2481	345013002879597
859	2461	345013003507399
863	2454	345013004333039
868	2451	345013005144200
878	2457	345013006048863
882	2466	345013006859295
876	2479	345013007659928
867	2486	345013008473019
857	2486	345013009309978
851	2476	345013010119004
847	2456	345013010949225
844	2427	345013011765321
839	2412	345013012604773
834	2409	345013013392919
832	2416	345013014193155
832	2432	345013014999678
833	2453	345013015932883
833	2467	345013016692773
832	2473	345013017595426
829	2474	345013018404194
832	2456	345013019234134
833	2430	345013020042854
841	2417	345013020945990
844	2417	345013021652103
843	2427	345013022278446
839	2441	345013023087698
832	2468	345013023916605
827	2493	345013024719545
824	2507	345013025564101
814	2511	345013026373024
807	2502	345013027182105
799	2476	345013027996958
794	2455	345013028826574
785	2441	345013029667215
780	2439	345013030474646
775	2449	345013031318016
772	2470	345013032129774
767	2490	345013032875555
761	2502	345013033738341
758	2511	345013034575518
754	2506	345013035381373
747	2484	345013036201378
743	2461	345013037011222
745	2444	345013037860598
746	2442	345013038713662
745	2450	345013039601486
743	2471	345013040411842
740	2488	345013041257529
739	2498	345013042068389
745	2507	345013042878457
751	2501	345013043726701
753	2479	345013044624183
750	2453	345013045434815
741	2441	345013046285454
738	2441	345013047061562
739	2454	345013047870110
735	2472	345013048630028
737	2488	345013049256373
743	2497	345013050060911
751	2506	345013050953550
759	2501	345013051788446
764	2483	345013052606252
763	2454	345013053397009
761	2437	345013054177405
764	2429	345013054980826
766	2436	345013055941428
761	2459	345013056773144
759	2484	345013057612527
759	2511	345013058443175
759	2529	345013059250662
762	2533	345013060062788
765	2518	345013060957115
767	2489	345013061908844
771	2475	345013062757117
779	2473	345013063610390
781	2481	345013064414674
776	2502	345013065223081
777	2527	345013066009228
774	2544	345013066820901
771	2557	345013067734027
765	2557	345013068581754
756	2541	345013069386771
749	2513	345013070108655
750	2494	345013070950259
754	2485	345013071784878
756	2489	345013072618116
762	2505	345013073445749
769	2526	345013074254659
774	2548	345013075050543
771	2564	345013075952067
763	2572	345013076786829
752	2557	345013077695024
746	2531	345013078506181
739	2512	345013079318248
732	2507	345013080125100
725	2515	345013080945721
716	2532	345013081792567
709	2550	345013082610125
701	2563	345013083431552
697	2567	345013084228281
692	2560	345013085037367
686	2536	345013085956408
680	2510	345013086730065
678	2495	345013087636235
678	2487	345013088443861
678	2493	345013089246357
677	2507	345013090068654
678	2527	345013090957730
678	2539	345013091919180
676	2538	345013092760077
670	2527	345013093615812
667	2501	345013094427391
662	2482	345013095101889
659	2470	345013095952147
652	2467	345013096789654
650	2477	345013097648200
655	2497	345013098494321
658	2518	345013099232637
663	2533	345013100040520
687	2541	345013100960000
708	2531	345013101793572
718	2508	345013102630674
724	2486	345013103455549
725	2477	345013104266082
718	2477	345013105070765
719	2488	345013105915536
730	2506	345013106755713
744	2526	345013107605463
764	2544	345013108431375
785	2555	345013109245556
800	2556	345013110053534
813	2539	345013110964968
822	2512	345013111754541
827	2501	345013112587307
831	2498	345013113377605
831	2505	345013114102760
823	2523	345013114908594
820	2551	345013115883872
827	2573	345013116736133
841	2585	345013117744378
850	2580	345013118666555
855	2553	345013119478903
854	2537	345013120109303
852	2529	345013120869618
845	2527	345013121706316
837	2536	345013122537522
831	2559	345013123368781
827	2582	345013124180205
821	2599	345013124988697
813	2607	345013125948538
804	2601	345013126788808
798	2578	345013127703050
790	2551	345013128494865
785	2539	345013129310243
776	2538	345013130122087
766	2544	345013130951732
757	2566	345013131791243
748	2586	345013132618013
743	2606	345013133441003
737	2616	345013134252934
733	2615	345013135057267
729	2596	345013135957254
725	2568	345013136743558
719	2553	345013137655384
711	2546	345013138454059
706	2557	345013139257370
703	2578	345013140071440
699	2605	345013140967551
694	2624	345013141649763
690	2631	345013142457287
684	2628	345013143258963
677	2609	345013144062581
670	2581	345013144874528
663	2560	345013145651359
657	2550	345013146444715
652	2552	345013147203965
649	2562	345013148002293
645	2577	345013148793925
639	2595	345013149602139
632	2605	345013150404691
624	2606	345013151208406
618	2596	345013151983835
613	2567	345013152782858
615	2548	345013153465021
614	2536	345013154084091
612	2531	345013154884308
610	2535	345013155706156
608	2552	345013156532875
605	2569	345013157316405
598	2583	345013158103053
594	2593	345013158881903
588	2598	345013159705886
584	2587	345013160482398
579	2561	345013161316211
573	2538	345013162137476
570	2529	345013162947843
565	2534	345013163784746
568	2551	345013164643294
573	2575	345013165452757
576	2596	345013166279382
573	2607	345013167107495
569	2605	345013167914888
565	2588	345013168754399
565	2559	345013169604311
565	2541	345013170410422
565	2530	345013171238580
565	2527	345013172071704
563	2536	345013172881382
563	2560	345013173835868
562	2584	345013174690618
557	2599	345013175498430
553	2605	345013176327247
547	2596	345013177087704
543	2574	345013177898602
546	2550	345013178747738
552	2539	345013179606926
557	2543	345013180410973
562	2561	345013181212446
564	2585	345013182037454
562	2607	345013182629272
562	2620	345013183428025
561	2628	345013184259237
556	2623	345013185055025
553	2601	345013185956168
555	2573	345013186739455
553	2557	345013187614596
548	2545	345013188400832
543	2547	345013189200560
536	2557	345013190016762
534	2574	345013190861474
530	2586	345013191628817
531	2589	345013192439156
532	2582	345013193235198
534	2562	345013194064852
534	2533	345013194872372
535	2512	345013195708469
540	2502	345013196577175
541	2501	345013197378895
546	2511	345013198185183
548	2526	345013199015634
542	2537	345013199827236
538	2541	345013200663167
536	2539	345013201369002
532	2526	345013202180909
526	2499	345013202986637
521	2482	345013203822642
517	2473	345013204665600
514	2471	345013205480359
514	2482	345013206323022
517	2500	345013207133930
528	2521	345013207948367
540	2532	345013208799236
549	2536	345013209620980
554	2526	345013210427474
558	2504	345013211265023
554	2476	345013212108579
551	2461	345013212888680
552	2460	345013213650065
557	2470	345013214456482
567	2489	345013215255809
577	2511	345013215872908
583	2522	345013216704018
584	2529	345013217512299
580	2527	345013218346553
576	2510	345013219163514
578	2484	345013219971864
580	2466	345013220952661
589	2462	345013221650580
601	2466	345013222458983
616	2485	345013223290279
630	2503	345013224099749
639	2523	345013224880011
638	2538	345013225830873
631	2539	345013226639874
625	2520	345013227416994
620	2497	345013228224709
616	2482	345013229006706
612	2478	345013229915358
612	2487	345013230724817
615	2505	345013231549948
622	2527	345013232325600
626	2543	345013233124027
624	2550	345013233900469
618	2548	345013234591652
614	2536	345013235377463
611	2510	345013236178820
611	2490	345013236957754
610	2476	345013237875404
615	2473	345013238712095
622	2484	345013239597324
625	2504	345013240397929
621	2521	345013241111179
615	2529	345013241919658
610	2530	345013242776954
608	2522	345013243608503
607	2498	345013244409800
603	2473	345013245118098
604	2456	345013245953781
614	2443	345013246801924
629	2445	345013247734137
647	2461	345013248574140
665	2482	345013249249303
680	2497	345013250072949
686	2506	345013250976696
684	2500	345013251792479
678	2481	345013252652942
684	2455	345013253371613
693	2440	345013254178528
701	2431	345013254966829
716	2432	345013255894709
727	2449	345013256727886
739	2469	345013257618230
751	2487	345013258434524
759	2496	345013259243690
759	2494	345013260047688
750	2476	345013260971514
745	2449	345013261756415
740	2431	345013262670509
742	2426	345013263456755
753	2432	345013264260097
767	2449	345013265057866
780	2468	345013265874956
792	2479	345013266714751
794	2484	345013267481177
787	2480	345013268295226
788	2463	345013269106112
794	2435	345013269917831
796	2417	345013270758103
796	2408	345013271612010
795	2410	345013272429301
795	2424	345013273236027
798	2436	345013274044686
805	2449	345013274868539
810	2457	345013275704432
809	2455	345013276370796
808	2442	345013277197991
812	2417	345013278008568
818	2396	345013278833997
827	2379	345013279720758
830	2376	345013280500373
833	2383	345013281333455
832	2398	345013282160906
825	2413	345013282962476
817	2424	345013283794387
808	2425	345013284625463
800	2416	345013285441051
799	2395	345013286287521
798	2371	345013287118866
798	2358	345013287932622
792	2357	345013288774266
788	2367	345013289618821
785	2385	345013290426329
777	2400	345013291249631
768	2412	345013292072117
769	2414	345013292875334
776	2409	345013293650092
785	2392	345013294469980
779	2368	345013295130698
771	2351	345013295971498
765	2344	345013296825728
759	2351	345013297738316
755	2368	345013298584113
752	2385	345013299255087
753	2397	345013300064816
762	2407	345013300975511
774	2405	345013301840798
787	2386	345013302689743
795	2363	345013303379561
800	2350	345013304204693
798	2348	345013305019366
789	2353	345013306025013
790	2368	345013306862821
798	2387	345013307635595
802	2398	345013308450162
803	2405	345013309274787
801	2405	345013310069287
799	2391	345013310989943
798	2362	345013311806116
802	2346	345013312637661
810	2338	345013313447696
815	2341	345013314273158
815	2356	345013315129917
807	2376	345013315874473
799	2388	345013316732686
790	2396	345013317635993
782	2394	345013318443450
779	2379	345013319271485
775	2355	345013320078921
774	2337	345013320910866
771	2330	345013321768919
770	2332	345013322585241
772	2343	345013323389032
768	2363	345013324225707
761	2380	345013325033306
754	2392	345013325973660
750	2392	345013326823288
749	2375	345013327726187
746	2350	345013328388421
739	2336	345013329146325
734	2332	345013329952659
723	2338	345013330921041
716	2354	345013331784389
712	2370	345013332619248
705	2383	345013333430264
699	2393	345013334258740
693	2394	345013335065154
692	2377	345013335980021
700	2352	345013336761419
704	2330	345013337667608
703	2320	345013338474013
705	2327	345013339248482
701	2344	345013340059121
692	2365	345013340883531
